4999.20917	0.285046729
4997.28046	0.28372093
4995.35176	0.283062645
4993.42305	0.282407407
4991.49434	0.281755196
4989.56564	0.283410138
4987.63693	0.282758621
4985.70822	0.28440367
4983.77951	0.28375286
4981.85081	0.283105023
4979.9221	0.282460137
4977.99339	0.281818182
4976.06468	0.281179138
4974.13598	0.283446712
4972.20727	0.28280543
4970.27856	0.281531532
4968.34986	0.280898876
4966.42115	0.282511211
4964.49244	0.281879195
4962.56373	0.28125
4960.63503	0.280623608
4958.70632	0.28
4956.77761	0.281596452
4954.8489	0.280973451
4952.9202	0.282560706
4950.99149	0.281938326
4949.06278	0.281318681
4947.13408	0.280701754
4945.20537	0.280087527
4943.27666	0.279475983
4941.34795	0.281045752
4939.41925	0.280434783
4937.49054	0.279826464
4935.56183	0.279220779
4933.63313	0.280777538
4931.70442	0.280172414
4929.77571	0.279569892
4927.847	0.278969957
4925.9183	0.280513919
4923.98959	0.279317697
4922.06088	0.280851064
4920.13217	0.280851064
4918.20347	0.279661017
4916.27476	0.279069767
4914.34605	0.278481013
4912.41735	0.28
4910.48864	0.279411765
4908.55993	0.278825996
4906.63122	0.278242678
4904.70252	0.279166667
4902.77381	0.278586279
4900.8451	0.278008299
4898.91639	0.277432712
4896.98769	0.279503106
4895.05898	0.27892562
4893.13027	0.280412371
4891.20157	0.27926078
4889.27286	0.278688525
4887.34415	0.278118609
4885.41544	0.27755102
4883.48674	0.276985743
4881.55803	0.276422764
4879.62932	0.277890467
4877.70062	0.277327935
4875.77191	0.276767677
4873.8432	0.276209677
4871.91449	0.277108434
4869.98579	0.276553106
4868.05708	0.276
4866.12837	0.274900398
4864.19966	0.274353877
4862.27096	0.275793651
4860.34225	0.275247525
4858.41354	0.276679842
4856.48484	0.275590551
4854.55613	0.275590551
4852.62742	0.275049116
4850.69871	0.273972603
4848.77001	0.275390625
4846.8413	0.274853801
4844.91259	0.276264591
4842.98388	0.275728155
4841.05518	0.275193798
4839.12647	0.274131274
4837.19776	0.273603083
4835.26906	0.275
4833.34035	0.274472169
4831.41164	0.27394636
4829.48293	0.273422562
4827.55423	0.272380952
4825.62552	0.273764259
4823.69681	0.273244782
4821.76811	0.274621212
4819.8394	0.274102079
4817.91069	0.273584906
4815.98198	0.27306968
4814.05328	0.273921201
4812.12457	0.27340824
4810.19586	0.272897196
4808.26715	0.273743017
4806.33845	0.273234201
4804.40974	0.272727273
4802.48103	0.272222222
4800.55233	0.271719039
4798.62362	0.273062731
4796.69491	0.272058824
4794.7662	0.271559633
4792.8375	0.272893773
4790.90879	0.272394881
4788.98008	0.27189781
4787.05137	0.270909091
4785.12267	0.272232305
4783.19396	0.27173913
4781.26525	0.27124774
4779.33655	0.272072072
4777.40784	0.271582734
4775.47913	0.271095153
4773.55042	0.271914132
4771.62172	0.271428571
4769.69301	0.270944742
4767.7643	0.270462633
4765.8356	0.271276596
4763.90689	0.27079646
4761.97818	0.270318021
4760.04947	0.271604938
4758.12077	0.270650264
4756.19206	0.270175439
4754.26335	0.269702277
4752.33464	0.270506108
4750.40594	0.270034843
4748.47723	0.269565217
4746.54852	0.268630849
4744.61982	0.26816609
4742.69111	0.267702936
4740.7624	0.268965517
4738.83369	0.268041237
4736.90499	0.268835616
4734.97628	0.268376068
4733.04757	0.267918089
4731.11886	0.26746167
4729.19016	0.268251273
4727.26145	0.26779661
4725.33274	0.267343486
4723.40404	0.268581081
4721.47533	0.268128162
4719.54662	0.267226891
4717.61791	0.268456376
4715.68921	0.2680067
4713.7605	0.267558528
4711.83179	0.266666667
4709.90308	0.266222962
4707.97438	0.266998342
4706.04567	0.266556291
4704.11696	0.267326733
4702.18826	0.266886326
4700.25955	0.266447368
4698.33084	0.266009852
4696.40213	0.265139116
4694.47343	0.265905383
4692.54472	0.265472313
4690.61601	0.26504065
4688.68731	0.265802269
4686.7586	0.265372168
4684.82989	0.266558966
4682.90118	0.265700483
4680.97248	0.265273312
4679.04377	0.264423077
4677.11506	0.264
4675.18635	0.265175719
4673.25765	0.26433121
4671.32894	0.26391097
4669.40023	0.263074485
4667.47153	0.264240506
4665.54282	0.263823065
4663.61411	0.264984227
4661.6854	0.264150943
4659.7567	0.263322884
4657.82799	0.264475743
4655.89928	0.2640625
4653.97057	0.263650546
4652.04187	0.264385692
4650.11316	0.263565891
4648.18445	0.263157895
4646.25575	0.262751159
4644.32704	0.26348228
4642.39833	0.263076923
4640.46962	0.262269939
4638.54092	0.263399694
4636.61221	0.26259542
4634.6835	0.262195122
4632.7548	0.261796043
4630.82609	0.261001517
4628.89738	0.262121212
4626.96867	0.26172466
4625.03997	0.260935143
4623.11126	0.262048193
4621.18255	0.261261261
4619.25384	0.260479042
4617.32514	0.261584454
4615.39643	0.260804769
4613.46772	0.260416667
4611.53902	0.261127596
4609.61031	0.260740741
4607.6816	0.259970458
4605.75289	0.259204713
4603.82419	0.260294118
4601.89548	0.259911894
4599.96677	0.259150805
4598.03806	0.260233918
4596.10936	0.259854015
4594.18065	0.26055313
4592.25194	0.260174419
4590.32324	0.25942029
4588.39453	0.25867052
4586.46582	0.25974026
4584.53711	0.258992806
4582.60841	0.25862069
4580.6797	0.257879656
4578.75099	0.258941345
4576.82229	0.258571429
4574.89358	0.257834758
4572.96487	0.258522727
4571.03616	0.258156028
4569.10746	0.25884017
4567.17875	0.258474576
4565.25004	0.257746479
4563.32133	0.257383966
4561.39263	0.256661992
4559.46392	0.257342657
4557.53521	0.258379888
4555.60651	0.257660167
4553.6778	0.257301808
4551.74909	0.256944444
4549.82038	0.257617729
4547.89168	0.256906077
4545.96297	0.256551724
4544.03426	0.257221458
4542.10555	0.256868132
4540.17685	0.256164384
4538.24814	0.255464481
4536.31943	0.256480218
4534.39073	0.255782313
4532.46202	0.255434783
4530.53331	0.256097561
4528.6046	0.255405405
4526.6759	0.255060729
4524.74719	0.255720054
4522.81848	0.255376344
4520.88978	0.254691689
4518.96107	0.254010695
4517.03236	0.255006676
4515.10365	0.254666667
4513.17495	0.253989362
4511.24624	0.253652058
4509.31753	0.254304636
4507.38882	0.253632761
4505.46012	0.25428195
4503.53141	0.253613666
4501.6027	0.25328084
4499.674	0.253926702
4497.74529	0.253594771
4495.81658	0.254237288
4493.88787	0.25390625
4491.95917	0.253246753
4490.03046	0.252590674
4488.10175	0.253229974
4486.17304	0.252903226
4484.24434	0.252252252
4482.31563	0.253213368
4480.38692	0.252564103
4478.45822	0.252240717
4476.52951	0.252873563
4474.6008	0.252229299
4472.67209	0.25158831
4470.74339	0.251269036
4468.81468	0.251898734
4466.88597	0.251262626
4464.95727	0.250945776
4463.02856	0.251572327
4461.09985	0.250941029
4459.17114	0.251564456
4457.24244	0.25125
4455.31373	0.250623441
4453.38502	0.25
4451.45631	0.249689441
4449.52761	0.250309789
4447.5989	0.25092707
4445.67019	0.250617284
4443.74149	0.25
4441.81278	0.249385749
4439.88407	0.250306748
4437.95536	0.249694002
4436.02666	0.25030525
4434.09795	0.25
4432.16924	0.249391727
4430.24053	0.248786408
4428.31183	0.249394673
4426.38312	0.249093108
4424.45441	0.249698432
4422.52571	0.249097473
4420.597	0.2484994
4418.66829	0.249101796
4416.73958	0.248803828
4414.81088	0.248210024
4412.88217	0.247619048
4410.95346	0.247030879
4409.02476	0.247924081
4407.09605	0.247337278
4405.16734	0.247933884
4403.23863	0.247349823
4401.30993	0.246768508
4399.38122	0.246189918
4397.45251	0.246783626
4395.5238	0.246495327
4393.5951	0.245920746
4391.66639	0.246798603
4389.73768	0.246225319
4387.80898	0.246813441
4385.88027	0.246527778
4383.95156	0.247113164
4382.02285	0.246543779
4380.09415	0.245977011
4378.16544	0.245412844
4376.23673	0.244851259
4374.30802	0.24543379
4372.37932	0.245153934
4370.45061	0.245733788
4368.5219	0.245175936
4366.5932	0.244620612
4364.66449	0.24519774
4362.73578	0.24464487
4360.80707	0.244094488
4358.87837	0.243546577
4356.94966	0.244120941
4355.02095	0.243575419
4353.09225	0.243303571
4351.16354	0.243875278
4349.23483	0.243333333
4347.30612	0.242793792
4345.37742	0.243362832
4343.44871	0.242825607
4341.52	0.242290749
4339.59129	0.243124312
4337.66259	0.243688255
4335.73388	0.243154436
4333.80517	0.242622951
4331.87647	0.242093784
4329.94776	0.241566921
4328.01905	0.242391304
4326.09034	0.24186551
4324.16164	0.242424242
4322.23293	0.241639698
4320.30422	0.24137931
4318.37551	0.241935484
4316.44681	0.241416309
4314.5181	0.241970021
4312.58939	0.241452991
4310.66069	0.240938166
4308.73198	0.241489362
4306.80327	0.241232731
4304.87456	0.241781548
4302.94586	0.241269841
4301.01715	0.240760296
4299.08844	0.240252898
4297.15974	0.239747634
4295.23103	0.240293809
4293.30232	0.239790576
4291.37361	0.239289446
4289.44491	0.23983316
4287.5162	0.239334027
4285.58749	0.239875389
4283.65878	0.239378238
4281.73008	0.238883144
4279.80137	0.238390093
4277.87266	0.238928939
4275.94396	0.238437821
4274.01525	0.238974359
4272.08654	0.238485159
4270.15783	0.239019408
4268.22913	0.23853211
4266.30042	0.238046796
4264.37171	0.237804878
4262.443	0.238336714
4260.5143	0.237854251
4258.58559	0.238383838
4256.65688	0.237903226
4254.72818	0.237424547
4252.79947	0.236947791
4250.87076	0.23747495
4248.94205	0.236763237
4247.01335	0.237288136
4245.08464	0.23681592
4243.15593	0.236345581
4241.22723	0.235877106
4239.29852	0.236399604
4237.36981	0.235932873
4235.4411	0.23546798
4233.5124	0.235988201
4231.58369	0.235525025
4229.65498	0.235063663
4227.72627	0.234604106
4225.79757	0.235121951
4223.86886	0.23466407
4221.94015	0.235179786
4220.01145	0.235693501
4218.08274	0.235237173
4216.15403	0.234782609
4214.22532	0.234329797
4212.29662	0.234615385
4210.36791	0.234165067
4208.4392	0.23467433
4206.51049	0.234225621
4204.58179	0.233778626
4202.65308	0.233333333
4200.72437	0.233840304
4198.79567	0.233396584
4196.86696	0.232954545
4194.93825	0.233238905
4193.00954	0.232799246
4191.08084	0.232361242
4189.15213	0.23286385
4187.22342	0.232427366
4185.29472	0.231992516
4183.36601	0.23155929
4181.4373	0.232059646
4179.50859	0.231627907
4177.57989	0.231910946
4175.65118	0.231481481
4173.72247	0.231053604
4171.79376	0.231549815
4169.86506	0.230910764
4167.93635	0.230486685
4166.00764	0.231192661
4164.07894	0.230769231
4162.15023	0.231050228
4160.22152	0.230628988
4158.29281	0.230209281
4156.36411	0.230699364
4154.4354	0.230281052
4152.50669	0.22965642
4150.57798	0.230144404
4148.64928	0.22972973
4146.72057	0.229316547
4144.79186	0.228699552
4142.86316	0.229185318
4140.93445	0.228775693
4139.00574	0.22925959
4137.07703	0.229741763
4135.14833	0.229333333
4133.21962	0.228723404
4131.29091	0.22920354
4129.36221	0.228798587
4127.4335	0.228193833
4125.50479	0.227792436
4123.57608	0.228270413
4121.64738	0.227870289
4119.71867	0.227471566
4117.78996	0.227074236
4115.86125	0.227351916
4113.93255	0.226956522
4112.00384	0.227430556
4110.07513	0.227036395
4108.14643	0.226643599
4106.21772	0.226919758
4104.28901	0.226333907
4102.3603	0.225945017
4100.4316	0.226415094
4098.50289	0.226883562
4096.57418	0.226495726
4094.64547	0.226109215
4092.71677	0.22572402
4090.78806	0.225148683
4088.85935	0.225614928
4086.93065	0.225042301
4085.00194	0.225506757
4083.07323	0.225126476
4081.14452	0.224558452
4079.21582	0.225020991
4077.28711	0.224455611
4075.3584	0.224916388
4073.4297	0.224540902
4071.50099	0.223980017
4069.57228	0.223607648
4067.64357	0.223236515
4065.71487	0.223695112
4063.78616	0.224152192
4061.85745	0.223781998
4059.92874	0.223228995
4058.00004	0.222861842
4056.07133	0.222313372
4054.14262	0.222768223
4052.21392	0.222222222
4050.28521	0.222675367
4048.3565	0.222312704
4046.42779	0.222583266
4044.49909	0.222222222
4042.57038	0.222491909
4040.64167	0.222132472
4038.71296	0.221774194
4036.78426	0.222043443
4034.85555	0.221686747
4032.92684	0.221331195
4030.99814	0.2208
4029.06943	0.220447284
4027.14072	0.220893142
4025.21201	0.221161496
4023.28331	0.220810167
4021.3546	0.220459952
4019.42589	0.219936709
4017.49719	0.220379147
4015.56848	0.219858156
4013.63977	0.220125786
4011.71106	0.21978022
4009.78236	0.2192639
4007.85365	0.218921032
4005.92494	0.219188768
4003.99623	0.218847352
4002.06753	0.219284603
4000.13882	0.218774244
3998.21011	0.219209915
3996.28141	0.218870843
3994.3527	0.218532819
3992.42399	0.218798151
3990.49528	0.21829362
3988.56658	0.217958557
3986.63787	0.218223583
3984.70916	0.217889908
3982.78045	0.217391304
3980.85175	0.217821782
3978.92304	0.217490494
3976.99433	0.217754173
3975.06563	0.217424242
3973.13692	0.216931217
3971.20821	0.216440422
3969.2795	0.216114458
3967.3508	0.216378663
3965.42209	0.216054014
3963.49338	0.216479401
3961.56468	0.215994021
3959.63597	0.216256525
3957.70726	0.215934475
3955.77855	0.215453195
3953.84985	0.215133531
3951.92114	0.215555556
3949.99243	0.215077605
3948.06372	0.214760148
3946.13502	0.215022091
3944.20631	0.214705882
3942.2776	0.214233309
3940.3489	0.214494876
3938.42019	0.214755296
3936.49148	0.214442013
3934.56277	0.214129643
3932.63407	0.213818182
3930.70536	0.214078374
3928.77665	0.213613324
3926.84794	0.213150289
3924.91924	0.212689257
3922.99053	0.212383009
3921.06182	0.212796549
3919.13312	0.212491027
3917.20441	0.21218638
3915.2757	0.212294496
3913.34699	0.212553495
3911.41829	0.212099644
3909.48958	0.212357955
3907.56087	0.211497516
3905.63217	0.211347518
3903.70346	0.211197732
3901.77475	0.210749646
3899.84604	0.210303458
3897.91734	0.210267229
3895.98863	0.210526316
3894.05992	0.210932025
3892.13121	0.210636809
3890.20251	0.210195531
3888.2738	0.210599721
3886.34509	0.210306407
3884.41639	0.209867964
3882.48768	0.209431345
3880.55897	0.209688581
3878.63026	0.209109731
3876.70156	0.209366391
3874.77285	0.209078404
3872.84414	0.208934708
3870.91543	0.208791209
3868.98673	0.208219178
3867.05802	0.208475735
3865.12931	0.208049113
3863.20061	0.208304969
3861.2719	0.208418194
3859.34319	0.20799458
3857.41448	0.20799458
3855.48578	0.207739308
3853.55707	0.207598372
3851.62836	0.20729237
3849.69966	0.207521827
3847.77095	0.207635633
3845.84224	0.207219251
3843.91353	0.20694259
3841.98483	0.206804536
3840.05612	0.206
3838.12741	0.206391478
3836.1987	0.206507304
3834.27	0.205960265
3832.34129	0.206076618
3830.41258	0.206328279
3828.48388	0.205785667
3826.55517	0.20551543
3824.62646	0.205245902
3822.69775	0.205111402
3820.76905	0.204842932
3818.84034	0.205094709
3816.91163	0.205345502
3814.98292	0.205461638
3813.05422	0.205310881
3811.12551	0.204912734
3809.1968	0.204780362
3807.2681	0.204516129
3805.33939	0.204252577
3803.41068	0.203346203
3801.48197	0.203727506
3799.55327	0.203205128
3797.62456	0.203194888
3795.69585	0.203314213
3793.76715	0.202797203
3791.83844	0.203045685
3789.90973	0.202659911
3787.98102	0.202907712
3786.05232	0.202651515
3784.12361	0.202268431
3782.1949	0.202643172
3780.26619	0.202261307
3778.33749	0.201880878
3776.40878	0.202001251
3774.48007	0.202247191
3772.55137	0.201371571
3770.62266	0.201120797
3768.69395	0.200870647
3766.76524	0.200992556
3764.83654	0.200619195
3762.90783	0.200865266
3760.97912	0.200617284
3759.05041	0.200246457
3757.12171	0.199876999
3755.193	0.199754149
3753.26429	0.199876999
3751.33559	0.199754149
3749.40688	0.199386503
3747.47817	0.199142157
3745.54946	0.199020208
3743.62076	0.198901769
3741.69205	0.198542805
3739.76334	0.198667474
3737.83464	0.198061781
3735.90593	0.197941889
3733.97722	0.198067633
3732.04851	0.198555957
3730.11981	0.198560288
3728.1911	0.198203593
3726.26239	0.197966507
3724.33368	0.19761194
3722.40498	0.197141155
3720.47627	0.197384067
3718.54756	0.196915777
3716.61886	0.197158082
3714.69015	0.19704142
3712.76144	0.19633353
3710.83273	0.196576151
3708.90403	0.196586227
3706.97532	0.19600939
3705.04661	0.196250732
3703.1179	0.196021065
3701.1892	0.196261682
3699.26049	0.195804196
3697.33178	0.196044212
3695.40308	0.195702671
3693.47437	0.195008706
3691.54566	0.195008706
3689.61695	0.194895592
3687.68825	0.194910353
3685.75954	0.19481268
3683.83083	0.194364577
3681.90213	0.194141298
3679.97342	0.194029851
3678.04471	0.194029851
3676.116	0.193455798
3674.1873	0.193585338
3672.25859	0.193825043
3670.32988	0.193493151
3668.40117	0.193401593
3666.47247	0.193420306
3664.54376	0.193548387
3662.61505	0.193220339
3660.68635	0.193002257
3658.75764	0.192893401
3656.82893	0.192784667
3654.90022	0.192459201
3652.97152	0.191788526
3651.04281	0.191333708
3649.1141	0.191226097
3647.18539	0.191250701
3645.25669	0.191061453
3643.32798	0.191192865
3641.39927	0.191430161
3639.47057	0.191111111
3637.54186	0.190899001
3635.61315	0.190687361
3633.68444	0.190581717
3631.75574	0.190133038
3629.82703	0.189578714
3627.89832	0.189712389
3625.96961	0.189636163
3624.04091	0.189768977
3622.1122	0.189218922
3620.18349	0.189218922
3618.25479	0.188907194
3616.32608	0.188699945
3614.39737	0.188389923
3612.46866	0.188286809
3610.53996	0.188080919
3608.61125	0.187772926
3606.68254	0.187908497
3604.75384	0.188043478
3602.82513	0.187737385
3600.89642	0.187635575
3598.96771	0.187432286
3597.03901	0.187128177
3595.1103	0.186925986
3593.18159	0.187162891
3591.25288	0.186961207
3589.32418	0.186422414
3587.39547	0.186221744
3585.46676	0.186358754
3583.53806	0.186495177
3581.60935	0.186195827
3579.68064	0.185897436
3577.75193	0.185699039
3575.82323	0.185501066
3573.89452	0.185204896
3571.96581	0.185106383
3570.0371	0.185106383
3568.1084	0.184476342
3566.17969	0.18418259
3564.25098	0.184322034
3562.32228	0.184029614
3560.39357	0.184266103
3558.46486	0.18407173
3556.53615	0.183877766
3554.60745	0.183684211
3552.67874	0.183491062
3550.75003	0.183823529
3548.82133	0.18363064
3546.89262	0.183438155
3544.96391	0.183150183
3543.0352	0.182958704
3541.1065	0.182672234
3539.17779	0.182481752
3537.24908	0.182291667
3535.32037	0.182101977
3533.39167	0.182337662
3531.46296	0.182148417
3529.53425	0.181959565
3527.60555	0.18134715
3525.67684	0.181677019
3523.74813	0.181489142
3521.81942	0.181301653
3519.89072	0.181021145
3517.96201	0.180741504
3516.0333	0.181069959
3514.10459	0.180883864
3512.17589	0.180698152
3510.24718	0.180420297
3508.31847	0.180235535
3506.38977	0.1799591
3504.46106	0.179775281
3502.53235	0.179591837
3500.60364	0.179317371
3498.67494	0.17913486
3496.74623	0.179369919
3494.81752	0.178680203
3492.88882	0.178498986
3490.96011	0.178824721
3489.0314	0.178643725
3487.10269	0.178372916
3485.17399	0.178192832
3483.24528	0.177923387
3481.31657	0.177744209
3479.38786	0.177978884
3477.45916	0.177710843
3475.53045	0.177532598
3473.60174	0.177265899
3471.67304	0.177
3469.74433	0.176823177
3467.81562	0.176558603
3465.88691	0.176792829
3463.95821	0.17652909
3462.0295	0.176266137
3460.10079	0.17609127
3458.17208	0.175829619
3456.24338	0.176063304
3454.31467	0.175889328
3452.38596	0.175629008
3450.45726	0.17545589
3448.52855	0.17519685
3446.59984	0.174938575
3444.67113	0.17468106
3442.74243	0.174424302
3440.81372	0.174657534
3438.88501	0.174401563
3436.95631	0.174146341
3435.0276	0.173891866
3433.09889	0.174124514
3431.17018	0.173786408
3429.24148	0.173449612
3427.31277	0.173681664
3425.38406	0.17334621
3423.45535	0.173095468
3421.52665	0.17284545
3419.59794	0.173076923
3417.66923	0.172744722
3415.74053	0.172496406
3413.81182	0.172166428
3411.88311	0.171919771
3409.9544	0.172232824
3408.0257	0.17198666
3406.09699	0.171741199
3404.16828	0.171971496
3402.23957	0.171726755
3400.31087	0.171401515
3398.38216	0.171077505
3396.45345	0.171226415
3394.52475	0.171374765
3392.59604	0.171052632
3390.66733	0.170731707
3388.73862	0.170411985
3386.80992	0.170172978
3384.88121	0.169855343
3382.9525	0.170083877
3381.0238	0.169767442
3379.09509	0.169530887
3377.16638	0.169216504
3375.23767	0.168981481
3373.30897	0.169131238
3371.38026	0.168897093
3369.45155	0.169046522
3367.52284	0.168813247
3365.59414	0.168580616
3363.66543	0.16872994
3361.73672	0.168421053
3359.80802	0.168190128
3357.87931	0.168339416
3355.9506	0.168109339
3354.02189	0.167803547
3352.09319	0.167574932
3350.16448	0.167271079
3348.23577	0.167043911
3346.30706	0.16681736
3344.37836	0.166967509
3342.44965	0.166741776
3340.52094	0.166441745
3338.59224	0.166591828
3336.66353	0.166367713
3334.73482	0.16606983
3332.80611	0.165847117
3330.87741	0.165997323
3328.9487	0.165701559
3327.01999	0.165480427
3325.09129	0.165186501
3323.16258	0.164966741
3321.23387	0.165117309
3319.30516	0.164825453
3317.37646	0.164607237
3315.44775	0.164757709
3313.51904	0.164467898
3311.59033	0.164179104
3309.66163	0.164329535
3307.73292	0.164113786
3305.80421	0.163826999
3303.87551	0.163541212
3301.9468	0.163256421
3300.01809	0.163043478
3298.08938	0.162760417
3296.16068	0.162911612
3294.23197	0.162629758
3292.30326	0.162780656
3290.37455	0.1625
3288.44585	0.16222031
3286.51714	0.162440911
3284.58843	0.162521441
3282.65973	0.162243151
3280.73102	0.161965812
3278.80231	0.16168942
3276.8736	0.161413969
3274.9449	0.161633348
3273.01619	0.161358811
3271.08748	0.161016949
3269.15878	0.161167513
3267.23007	0.16089527
3265.30136	0.161045531
3263.37265	0.160774411
3261.44395	0.160504202
3259.51524	0.16030214
3257.58653	0.160033515
3255.65782	0.159765788
3253.72912	0.159498956
3251.80041	0.159233014
3249.8717	0.158967957
3247.943	0.159119236
3246.01429	0.158855247
3244.08558	0.158592133
3242.15687	0.158743282
3240.22817	0.158481222
3238.29946	0.158632056
3236.37075	0.158436214
3234.44204	0.158175842
3232.51334	0.157851579
3230.58463	0.157593123
3228.65592	0.157335513
3226.72722	0.15748674
3224.79851	0.157230143
3222.8698	0.157381049
3220.94109	0.157125457
3219.01239	0.156870693
3217.08368	0.156616754
3215.15497	0.156767677
3213.22627	0.156514724
3211.29756	0.156262586
3209.36885	0.156350482
3207.44014	0.156099518
3205.51144	0.155849359
3203.58273	0.1556
3201.65402	0.155750799
3199.72531	0.155502392
3197.79661	0.155254777
3195.8679	0.155007949
3193.93919	0.154700516
3192.01049	0.154851485
3190.08178	0.154606564
3188.15307	0.154696133
3186.22436	0.154452325
3184.29566	0.154209284
3182.36695	0.153967007
3180.43824	0.15372549
3178.50953	0.15348473
3176.58083	0.153575615
3174.65212	0.153335934
3172.72341	0.153037383
3170.79471	0.152799378
3168.866	0.152950311
3166.93729	0.152713178
3165.00858	0.15247678
3163.07988	0.152568559
3161.15117	0.152333205
3159.22246	0.152098575
3157.29376	0.151864667
3155.36505	0.152015355
3153.43634	0.151724138
3151.50763	0.151491966
3149.57893	0.151642475
3147.65022	0.151411137
3145.72151	0.151122954
3143.7928	0.150893197
3141.8641	0.15060698
3139.93539	0.150321848
3138.00668	0.150094518
3136.07798	0.150245376
3134.14927	0.149962321
3132.22056	0.149736644
3130.29185	0.149887303
3128.36315	0.149662416
3126.43444	0.149438202
3124.50573	0.149158879
3122.57702	0.14893617
3120.64832	0.149031297
3118.71961	0.148809524
3116.7909	0.14858841
3114.8622	0.148683723
3112.93349	0.148463532
3111.00478	0.148189209
3109.07607	0.14797048
3107.14737	0.148066298
3105.21866	0.147794118
3103.28995	0.147577093
3101.36125	0.147360704
3099.43254	0.147510981
3097.50383	0.147241505
3095.57512	0.146973012
3093.64642	0.146758922
3091.71771	0.146492185
3089.789	0.146642468
3087.86029	0.146376812
3085.93159	0.146164978
3084.00288	0.145901047
3082.07417	0.145690588
3080.14547	0.145428366
3078.21676	0.14552641
3076.28805	0.145317546
3074.35934	0.14510928
3072.43064	0.144849785
3070.50193	0.145
3068.57322	0.144793153
3066.64451	0.144535422
3064.71581	0.144329897
3062.7871	0.144073811
3060.85839	0.144172866
3058.92969	0.143968872
3057.00098	0.143765454
3055.07227	0.143511989
3053.14356	0.143309859
3051.21486	0.14340949
3049.28615	0.143208143
3047.35744	0.143007361
3045.42874	0.142757173
3043.50003	0.142557652
3041.57132	0.142309034
3039.64261	0.142110763
3037.71391	0.14226087
3035.7852	0.142063216
3033.85649	0.141866112
3031.92778	0.141620499
3029.99908	0.14142462
3028.07037	0.141229282
3026.14166	0.141330576
3024.21296	0.141135972
3022.28425	0.140941904
3020.35554	0.140748369
3018.42683	0.140555365
3016.49813	0.140362889
3014.56942	0.14017094
3012.64071	0.140027322
3010.712	0.139836289
3008.7833	0.139645777
3006.85459	0.139843484
3004.92588	0.139653415
3002.99718	0.139463862
3001.06847	0.138983051
2999.13976	0.138841856
2997.21105	0.138700947
2995.28235	0.138607167
2993.35364	0.138513514
2991.42493	0.138419986
2989.49623	0.138326586
2987.56752	0.137942664
2985.63881	0.137896156
2983.7101	0.137896156
2981.7814	0.137605396
2979.85269	0.13731444
2977.92398	0.137069548
2975.99527	0.136916836
2974.06657	0.136810024
2972.13786	0.136749237
2970.20915	0.136781218
2968.28045	0.136425648
2966.35174	0.136317048
2964.42303	0.136410256
2962.49432	0.135975401
2960.56562	0.135650988
2958.63691	0.135575943
2956.7082	0.135409614
2954.77949	0.135244519
2952.85079	0.135080645
2950.92208	0.134963161
2948.99337	0.134602538
2947.06467	0.134711571
2945.13596	0.134532135
2943.20725	0.134442596
2941.27854	0.134109817
2939.34984	0.134154461
2937.42113	0.133866134
2935.49242	0.133533134
2933.56372	0.133533134
2931.63501	0.13344426
2929.7063	0.13331117
2927.77759	0.13313413
2925.84889	0.13291349
2923.92018	0.13260582
2921.99147	0.132585752
2920.06276	0.132478632
2918.13406	0.132372215
2916.20535	0.13222331
2914.27664	0.132118451
2912.34794	0.131732641
2910.41923	0.13171521
2908.49052	0.13169787
2906.56181	0.131400966
2904.63311	0.131105398
2902.7044	0.130811157
2900.77569	0.130838132
2898.84698	0.130545803
2896.91828	0.130573248
2894.98957	0.130600572
2893.06086	0.130310717
2891.13216	0.130063291
2889.20345	0.12985782
2887.27474	0.129652997
2885.34603	0.129489603
2883.41733	0.129326621
2881.48862	0.129245283
2879.55991	0.129164048
2877.63121	0.129082915
2875.7025	0.128961406
2873.77379	0.128799749
2871.84508	0.128638498
2869.91638	0.1284375
2867.98767	0.128237129
2866.05896	0.128037383
2864.13025	0.127878034
2862.20155	0.12771908
2860.27284	0.127560521
2858.34413	0.127131783
2856.41543	0.127244582
2854.48672	0.127047913
2852.55801	0.126773597
2850.6293	0.126769231
2848.7006	0.126687117
2846.77189	0.126605505
2844.84318	0.126219512
2842.91447	0.12617817
2840.98577	0.125872005
2839.05706	0.125869894
2837.12835	0.125603865
2835.19965	0.125376733
2833.27094	0.125451264
2831.34223	0.125225225
2829.41352	0.125037481
2827.48482	0.12481293
2825.55611	0.12462642
2823.6274	0.124440466
2821.6987	0.124255066
2819.76999	0.124070217
2817.84128	0.124219911
2815.91257	0.123998813
2813.98387	0.123518957
2812.05516	0.123372781
2810.12645	0.123190547
2808.19774	0.123045146
2806.26904	0.122900088
2804.34033	0.122719247
2802.41162	0.122538936
2800.48292	0.122652582
2798.55421	0.122508792
2796.6255	0.12236534
2794.69679	0.122186495
2792.76809	0.122008173
2790.83938	0.12183037
2788.91067	0.12139738
2786.98196	0.12122093
2785.05326	0.121044993
2783.12455	0.12115942
2781.19584	0.121019108
2779.26714	0.120844175
2777.33843	0.120669746
2775.40972	0.120530565
2773.48101	0.120391705
2771.55231	0.120218579
2769.6236	0.120080437
2767.69489	0.119908204
2765.76619	0.119484241
2763.83748	0.119313305
2761.90877	0.119176908
2759.98006	0.119040822
2758.05136	0.118871152
2756.12265	0.118735763
2754.19394	0.118600683
2752.26523	0.118432264
2750.33653	0.118297872
2748.40782	0.118163786
2746.47911	0.117996604
2744.55041	0.117829895
2742.6217	0.117696867
2740.69299	0.117564139
2738.76428	0.117431709
2736.83558	0.117266592
2734.90687	0.117134831
2732.97816	0.117003367
2731.04945	0.116839451
2729.12075	0.116708648
2727.19204	0.116545556
2725.26333	0.116382919
2723.33463	0.116253136
2721.40592	0.115812918
2719.47721	0.115684093
2717.5485	0.115555556
2715.6198	0.115395284
2713.69109	0.115235457
2711.76238	0.115107914
2709.83368	0.114948881
2707.90497	0.114821971
2705.97626	0.114695341
2704.04755	0.114568989
2702.11885	0.114136414
2700.19014	0.113979676
2698.26143	0.113854595
2696.33272	0.11369863
2694.40402	0.113574165
2692.47531	0.113449973
2690.5466	0.113326051
2688.6179	0.11317153
2686.68919	0.113320621
2684.76048	0.113197279
2682.83177	0.113043478
2680.90307	0.112649294
2678.97436	0.112496612
2677.04565	0.112374763
2675.11694	0.112253178
2673.18824	0.112101567
2671.25953	0.111710739
2669.33082	0.111590296
2667.40212	0.111440108
2665.47341	0.111320247
2663.5447	0.110902256
2661.61599	0.111051502
2659.68729	0.110902759
2657.75858	0.110784051
2655.82987	0.110636024
2653.90117	0.110517886
2651.97246	0.110103972
2650.04375	0.109957401
2648.11504	0.109840426
2646.18634	0.109723698
2644.25763	0.109607219
2642.32892	0.109461967
2640.40021	0.109081281
2638.47151	0.10893707
2636.5428	0.108821976
2634.61409	0.108678449
2632.68539	0.1085639
2630.75668	0.108449592
2628.82797	0.108307045
2626.89926	0.108193277
2624.97056	0.108051403
2623.04185	0.107938171
2621.11314	0.107563465
2619.18443	0.10745098
2617.25573	0.107310705
2615.32702	0.107170795
2613.39831	0.106770833
2611.46961	0.106659729
2609.5409	0.106521174
2607.61219	0.106410589
2605.68348	0.10627268
2603.75478	0.10616261
2601.82607	0.106052768
2599.89736	0.105943152
2597.96865	0.105806452
2596.03995	0.105697345
2594.11124	0.10533093
2592.18253	0.105195473
2590.25383	0.105060365
2588.32512	0.104925603
2586.39641	0.104818042
2584.4677	0.104683901
2582.539	0.104576835
2580.61029	0.104214559
2578.68158	0.104081633
2576.75288	0.103949045
2574.82417	0.103588699
2572.89546	0.103457041
2570.96675	0.103351955
2569.03805	0.103220898
2567.10934	0.103116291
2565.18063	0.10298583
2563.25192	0.102602982
2561.32322	0.102473498
2559.39451	0.102370146
2557.4658	0.102267003
2555.5371	0.101912431
2553.60839	0.101784368
2551.67968	0.101682149
2549.75097	0.101554664
2547.82227	0.101452906
2545.89356	0.101325994
2543.96485	0.101224694
2542.03614	0.101098352
2540.10744	0.100972326
2538.17873	0.100871731
2536.25002	0.100497512
2534.32132	0.100149105
2532.39261	0.10002482
2530.4639	0.099900843
2528.53519	0.099801882
2526.60649	0.099703117
2524.67778	0.099579936
2522.74907	0.099481609
2520.82037	0.099112426
2518.89166	0.098990396
2516.96295	0.098892989
2515.03424	0.098771499
2513.10554	0.098650307
2511.17683	0.098308409
2509.24812	0.098212099
2507.31941	0.098091977
2505.39071	0.097972148
2503.462	0.09760859
2501.53329	0.097513408
2499.60459	0.097394692
2497.67588	0.097276265
2495.74717	0.09718173
2493.81846	0.097087379
2491.88976	0.096727273
2489.96105	0.096633567
2488.03234	0.096516691
2486.10363	0.096400097
2484.17493	0.096065653
2482.24622	0.095949855
2480.31751	0.095834337
2478.38881	0.095742122
2476.4601	0.095627102
2474.53139	0.095535286
2472.60268	0.095181012
2470.67398	0.09506705
2468.74527	0.094976077
2466.81656	0.094623656
2464.88786	0.09451074
2462.95915	0.094420601
2461.03044	0.094308169
2459.10173	0.094196004
2457.17303	0.094084105
2455.24432	0.093735168
2453.31561	0.093646278
2451.3869	0.093557556
2449.4582	0.093446889
2447.52949	0.093122193
2445.60078	0.093012276
2443.67208	0.092880717
2441.74337	0.092793217
2439.81466	0.092448836
2437.88595	0.092361927
2435.95725	0.092253521
2434.02854	0.092145369
2432.09983	0.09205903
2430.17112	0.091717361
2428.24242	0.091610189
2426.31371	0.091503268
2424.385	0.091163441
2422.4563	0.091057289
2420.52759	0.090972545
2418.59888	0.090866837
2416.67017	0.090761374
2414.74147	0.090656156
2412.81276	0.090551181
2410.88405	0.090446449
2408.95535	0.090131731
2407.02664	0.090027701
2405.09793	0.089693336
2403.16922	0.089590051
2401.24052	0.089256959
2399.31181	0.089154412
2397.3831	0.088842975
2395.45439	0.088741114
2393.52569	0.088639487
2391.59698	0.088558352
2389.66827	0.088457143
2387.73957	0.088335996
2385.81086	0.088235294
2383.88215	0.087907083
2381.95344	0.087827076
2380.02474	0.087727273
2378.09603	0.087420527
2376.16732	0.087321388
2374.23861	0.086995922
2372.30991	0.087143504
2370.3812	0.086818901
2368.45249	0.086720867
2366.52379	0.086642599
2364.59508	0.086544963
2362.66637	0.086222422
2360.73766	0.086125478
2358.80896	0.086028751
2356.88025	0.085912965
2354.95154	0.085816715
2353.02284	0.085701499
2351.09413	0.085382208
2349.16542	0.08506363
2347.23671	0.084987731
2345.30801	0.084670232
2343.3793	0.084594835
2341.45059	0.084500778
2339.52188	0.08420351
2337.59318	0.084110075
2335.66447	0.084016848
2333.73576	0.083923826
2331.80706	0.083609821
2329.87835	0.083499006
2327.94964	0.083406884
2326.02093	0.083314966
2324.09223	0.083003082
2322.16352	0.08289358
2320.23481	0.082582912
2318.3061	0.082492321
2316.3774	0.082401929
2314.44869	0.082311734
2312.51998	0.082221736
2310.59128	0.08189561
2308.66257	0.082024433
2306.73386	0.081734961
2304.80515	0.081645983
2302.87645	0.081339713
2300.94774	0.081251358
2299.01903	0.080946181
2297.09033	0.080858444
2295.16162	0.080770896
2293.23291	0.080700995
2291.3042	0.080397666
2289.3755	0.080112287
2287.44679	0.080025884
2285.51808	0.079939668
2283.58937	0.079853638
2281.66067	0.079552784
2279.73196	0.079467354
2277.80325	0.079184549
2275.87455	0.079099678
2273.94584	0.079014989
2272.01713	0.078716578
2270.08842	0.078649284
2268.15972	0.078351836
2266.23101	0.078268287
2264.3023	0.078184917
2262.37359	0.078118348
2260.44489	0.078035297
2258.51618	0.077740017
2256.58747	0.077657543
2254.65877	0.077346896
2252.73006	0.07726503
2250.80135	0.076971876
2248.87264	0.07687434
2246.94394	0.076793249
2245.01523	0.076696165
2243.08652	0.076615449
2241.15782	0.076308598
2239.22911	0.076212471
2237.3004	0.075922819
2235.37169	0.075827398
2233.44299	0.075748064
2231.51428	0.075444096
2229.58557	0.075349614
2227.65686	0.075255368
2225.72816	0.07517701
2223.79945	0.075083195
2221.87074	0.074797424
2219.94204	0.074704295
2218.01333	0.074419569
2216.08462	0.074327122
2214.15591	0.074250259
2212.22721	0.074158232
2210.2985	0.074081717
2208.36979	0.07400536
2206.44108	0.07370805
2204.51238	0.073426573
2202.58367	0.07335114
2200.65496	0.073275862
2198.72626	0.073200738
2196.79755	0.073110793
2194.86884	0.072831424
2192.94013	0.072757
2191.01143	0.072478563
2189.08272	0.072200693
2187.15401	0.072127139
2185.22531	0.071850193
2183.2966	0.071777145
2181.36789	0.071704245
2179.43918	0.071631494
2177.51048	0.071356173
2175.58177	0.071283921
2173.65306	0.071211815
2171.72435	0.070937753
2169.79565	0.070866142
2167.86694	0.070794675
2165.93823	0.070521862
2164.00953	0.070450886
2162.08082	0.070178966
2160.15211	0.070108477
2158.2234	0.069837447
2156.2947	0.069767442
2154.36599	0.069511218
2152.43728	0.069441665
2150.50857	0.069386123
2148.57987	0.069158505
2146.65116	0.068958625
2144.72245	0.068958625
2142.79375	0.068862275
2140.86504	0.0687251
2138.93633	0.068403261
2137.00762	0.068308181
2135.07892	0.068240428
2133.15021	0.067974633
2131.2215	0.067893903
2129.2928	0.067615658
2127.36409	0.067548884
2125.43538	0.067468929
2123.50667	0.067205361
2121.57797	0.067139201
2119.64926	0.066876475
2117.72055	0.066797642
2115.79184	0.066535819
2113.86314	0.066457557
2111.93443	0.066392479
2110.00572	0.066118936
2108.07702	0.066054329
2106.14831	0.065781768
2104.2196	0.065717629
2102.29089	0.065458796
2100.36219	0.06538237
2098.43348	0.065111759
2096.50477	0.065035915
2094.57606	0.064972847
2092.64736	0.064897327
2090.71865	0.064821981
2088.78994	0.064553537
2086.86124	0.064285714
2084.93253	0.064018511
2083.00382	0.06394453
2081.07511	0.06387072
2079.14641	0.063617144
2077.2177	0.063543866
2075.28899	0.063279003
2073.36029	0.063206282
2071.43158	0.063133729
2069.50287	0.062894284
2067.57416	0.062846227
2065.64546	0.06259542
2063.71675	0.062511912
2061.78804	0.062416746
2059.85933	0.062333713
2057.93063	0.062072893
2056.00192	0.062002275
2054.07321	0.061742424
2052.14451	0.061684011
2050.2158	0.061425061
2048.28709	0.061355484
2046.35838	0.061097492
2044.42968	0.060840083
2042.50097	0.060594656
2040.57226	0.060526316
2038.64355	0.06045813
2036.71485	0.060401426
2034.78614	0.060333521
2032.85743	0.060101105
2030.92873	0.060078608
2029.00002	0.059869036
2027.07131	0.059779563
2025.1426	0.059503824
2023.2139	0.05942623
2021.28519	0.059359881
2019.35648	0.059118795
2017.42778	0.059063893
2015.49907	0.058823529
2013.57036	0.058758109
2011.64165	0.058507684
2009.71295	0.05845357
2007.78424	0.058214748
2005.85553	0.057976366
2003.92682	0.057922892
2001.99812	0.057869517
2000.06941	0.057632112
1998.1407	0.057384587
1996.212	0.057331863
1994.28329	0.057095649
1992.35458	0.056870299
1990.42587	0.056818182
1988.49717	0.05676616
1986.56846	0.056520944
1984.63975	0.056469298
1982.71104	0.056235165
1980.78234	0.056183874
1978.85363	0.055960627
1976.92492	0.05590967
1974.99622	0.055676856
1973.06751	0.055636364
1971.1388	0.055414244
1969.21009	0.05536395
1967.28139	0.055142391
1965.35268	0.055092425
1963.42397	0.054881362
1961.49527	0.054588321
1959.56656	0.054466231
1957.63785	0.054387237
1955.70914	0.054210336
1953.78044	0.054083288
1951.85173	0.053844769
1949.92302	0.05380601
1947.99431	0.053568219
1946.06561	0.053330939
1944.1369	0.0532831
1942.20819	0.053235347
1940.27949	0.053168636
1938.35078	0.052923297
1936.42207	0.052697392
1934.49336	0.05247189
1932.56466	0.052425107
1930.63595	0.052378407
1928.70724	0.052153791
1926.77853	0.051938812
1924.84983	0.05189266
1922.92112	0.051855798
1920.99241	0.051641526
1919.06371	0.051427558
1917.135	0.051372896
1915.20629	0.051123297
1913.27758	0.051069093
1911.34888	0.050856437
1909.42017	0.050811574
1907.49146	0.050590516
1905.56276	0.050537066
1903.63405	0.050316678
1901.70534	0.050272456
1899.77663	0.050061479
1897.84793	0.049850799
1895.91922	0.049640414
1893.99051	0.049596916
1892.0618	0.049562172
1890.1331	0.049352468
1888.20439	0.04930932
1886.27568	0.049082969
1884.34698	0.04886562
1882.41827	0.048648649
1880.48956	0.048606272
1878.56085	0.048389904
1876.63215	0.048347826
1874.70344	0.048132059
1872.77473	0.04793331
1870.84602	0.04793331
1868.91732	0.047743056
1866.98861	0.047503467
1865.0599	0.047429462
1863.1312	0.047380252
1861.20249	0.047166551
1859.27378	0.046953219
1857.34507	0.046912729
1855.41637	0.046699983
1853.48766	0.046667815
1851.55895	0.046455609
1849.63025	0.046251719
1847.70154	0.046243768
1845.77283	0.04607978
1843.84412	0.045876289
1841.91542	0.045797599
1839.98671	0.045555746
1838.058	0.045508982
1836.12929	0.045299145
1834.20059	0.045089667
1832.27188	0.045081967
1830.34317	0.044895869
1828.41447	0.044865234
1826.48576	0.044648943
1824.55705	0.044433095
1822.62834	0.044380207
1820.69964	0.04416511
1818.77093	0.044135121
1816.84222	0.043935539
1814.91351	0.043913191
1812.98481	0.043728814
1811.0561	0.043537184
1809.12739	0.043338412
1807.19869	0.043309085
1805.26998	0.043118025
1803.34127	0.042948935
1801.41256	0.042779844
1799.48386	0.042765382
1797.55515	0.042567568
1795.62644	0.042567568
1793.69774	0.042420145
1791.76903	0.042251141
1789.84032	0.04220834
1787.91161	0.042011135
1785.98291	0.041842416
1784.0542	0.041673697
1782.12549	0.041497976
1780.19678	0.041322314
1778.26808	0.041139774
1776.33937	0.040978078
1774.41066	0.040843882
1772.48196	0.040702584
1770.55325	0.04068884
1768.62454	0.04048583
1766.69583	0.040444894
1764.76713	0.040256022
1762.83842	0.040101095
1760.90971	0.039946064
1758.981	0.039784221
1757.0523	0.039635689
1755.12359	0.039500338
1753.19488	0.039398039
1751.26618	0.039308709
1749.33747	0.039179104
1747.40876	0.039029357
1745.48005	0.038879457
1743.55135	0.038755737
1741.62264	0.038638298
1739.69393	0.038500852
1737.76523	0.038192668
1735.83652	0.038074099
1733.90781	0.037929267
1731.9791	0.037694013
1730.0504	0.037780803
1728.12169	0.037716616
1726.19298	0.037489398
1724.26427	0.037269185
1722.33557	0.037068382
1720.40686	0.037068382
1718.47815	0.03689912
1716.54945	0.036855452
1714.62074	0.036587422
1712.69203	0.036482851
1710.76332	0.036409396
1708.83462	0.036199095
1706.90591	0.036007369
1704.9772	0.035803915
1703.04849	0.035797926
1701.11979	0.035636607
1699.19108	0.03559492
1697.26237	0.035517759
1695.33367	0.035274542
1693.40496	0.035180883
1691.47625	0.034956925
1689.54754	0.034773969
1687.61884	0.034785489
1685.69013	0.034488476
1683.76142	0.034488476
1681.83272	0.034260179
1679.90401	0.034209222
1677.9753	0.034197918
1676.04659	0.034038334
1674.11789	0.033861909
1672.18918	0.03368004
1670.26047	0.033520476
1668.33176	0.033492823
1666.40306	0.033283902
1664.47435	0.033113674
1662.54564	0.033108219
1660.61694	0.032921811
1658.68823	0.032746421
1656.75952	0.032624815
1654.83081	0.032385988
1652.90211	0.032252729
1650.9734	0.032188841
1649.04469	0.03198681
1647.11598	0.031821929
1645.18728	0.031790479
1643.25857	0.031738201
1641.32986	0.031552999
1639.40116	0.031573754
1637.47245	0.031450683
1635.54374	0.031296327
1633.61503	0.03125
1631.68633	0.03103958
1629.75762	0.030865211
1627.82891	0.030706076
1625.90021	0.030551905
1623.9715	0.03039264
1622.04279	0.030382657
1620.11408	0.030208504
1618.18538	0.030218427
1616.25667	0.030044328
1614.32796	0.029840958
1612.39925	0.029816514
1610.47055	0.02964783
1608.54184	0.02964783
1606.61313	0.029474374
1604.68443	0.029301031
1602.75572	0.029127802
1600.82701	0.028949951
1598.8983	0.028776978
1596.9696	0.028599444
1595.04089	0.02858543
1593.11218	0.02839889
1591.18347	0.028212655
1589.25477	0.028189669
1587.32606	0.027999349
1585.39735	0.027813923
1583.46865	0.027786805
1581.53994	0.027606366
1579.61123	0.027601883
1577.68252	0.027286016
1575.75382	0.027105989
1573.82511	0.027066451
1571.8964	0.027044534
1569.96769	0.026869537
1568.03899	0.026681759
1566.11028	0.026647287
1564.18157	0.026634383
1562.25287	0.026502909
1560.32416	0.02623057
1558.39545	0.026072874
1556.46674	0.026013896
1554.53804	0.025785657
1552.60933	0.02574831
1550.68062	0.025731747
1548.75192	0.025562701
1546.82321	0.025414187
1544.8945	0.025281804
1542.96579	0.02516129
1541.03709	0.025012103
1539.10838	0.024971806
1537.17967	0.024903599
1535.25096	0.024707204
1533.32226	0.024531025
1531.39355	0.024503523
1529.46484	0.024327785
1527.53614	0.024175472
1525.60743	0.024030759
1523.67872	0.023897354
1521.75001	0.023756019
1519.82131	0.023584149
1517.8926	0.023557692
1515.96389	0.023378703
1514.03518	0.023211141
1512.10648	0.023054755
1510.17777	0.022916667
1508.24906	0.022781967
1506.32036	0.022767356
1504.39165	0.022712732
1502.46294	0.022513173
1500.53423	0.022357074
1498.60553	0.02221867
1496.67682	0.022058824
1494.74811	0.022044728
1492.81941	0.021884984
1490.8907	0.021742606
1488.96199	0.021589637
1487.03328	0.021575835
1485.10458	0.021239221
1483.17587	0.021072797
1481.24716	0.020919834
1479.31845	0.020936551
1477.38975	0.020806658
1475.46104	0.020686337
1473.53233	0.020558946
1471.60363	0.020411443
1469.67492	0.020253978
1467.74621	0.020106161
1465.8175	0.019967794
1463.8888	0.019813144
1461.96009	0.019658395
1460.03138	0.019528728
1458.10267	0.019404916
1456.17397	0.019240097
1454.24526	0.019199742
1452.31655	0.019010794
1450.38785	0.019004671
1448.45914	0.01884058
1446.53043	0.018667525
1444.60172	0.018649518
1442.67302	0.018479833
1440.74431	0.018322083
1438.8156	0.018023817
1436.8869	0.018038331
1434.95819	0.017865765
1433.02948	0.017851399
1431.10077	0.017848529
1429.17207	0.017529752
1427.24336	0.017368929
1425.31465	0.017216412
1423.38594	0.017071992
1421.45724	0.016938216
1419.52853	0.016804007
1417.59982	0.01664781
1415.67112	0.016639742
1413.74241	0.01664243
1411.8137	0.016494179
1409.88499	0.016345687
1407.95629	0.016196955
1406.02758	0.016050584
1404.09887	0.015736535
1402.17016	0.015584416
1400.24146	0.015432099
1398.31275	0.015277101
1396.38404	0.015277101
1394.45534	0.015267176
1392.52663	0.015087605
1390.59792	0.014918113
1388.66921	0.014922952
1386.74051	0.014765536
1384.8118	0.014596173
1382.88309	0.014426974
1380.95439	0.014419961
1379.02568	0.014255629
1377.09697	0.014093634
1375.16826	0.013936153
1373.23956	0.013771873
1371.31085	0.013605442
1369.38214	0.013439119
1367.45343	0.013436944
1365.52473	0.013275053
1363.59602	0.013277202
1361.66731	0.013108917
1359.73861	0.012772838
1357.8099	0.01276252
1355.88119	0.012594865
1353.95248	0.012588767
1352.02378	0.012421358
1350.09507	0.012252136
1348.16636	0.012083132
1346.23765	0.011914346
1344.30895	0.011747667
1342.38024	0.011745776
1340.45153	0.011584875
1338.52283	0.011418463
1336.59412	0.011248594
1334.66541	0.011237759
1332.7367	0.011228746
1330.808	0.01090093
1328.87929	0.01089569
1326.95058	0.01073202
1325.02188	0.010730301
1323.09317	0.010409994
1321.16446	0.010251482
1319.23575	0.010092919
1317.30705	0.009934305
1315.37834	0.009777208
1313.44963	0.009618467
1311.52092	0.00962001
1309.59222	0.009621552
1307.66351	0.009624639
1305.7348	0.009306804
1303.8061	0.009149278
1301.87739	0.008994539
1299.94868	0.008838181
1298.01997	0.008684464
1296.09127	0.008529128
1294.16256	0.00837494
1292.23385	0.008381689
1290.30514	0.008227133
1288.37644	0.008233775
1286.44773	0.008080155
1284.51902	0.007926237
1282.59032	0.007774538
1280.66161	0.00762121
1278.7329	0.007632348
1276.80419	0.007483325
1274.87549	0.007334963
1272.94678	0.007189542
1271.01807	0.00704687
1269.08937	0.006910168
1267.16066	0.006779101
1265.23195	0.006812895
1263.30324	0.006672227
1261.37454	0.006516291
1259.44583	0.006342848
1257.51712	0.00632806
1255.58841	0.006145159
1253.65971	0.005967181
1251.731	0.005962239
1249.80229	0.005796621
1247.87359	0.005800464
1245.94488	0.00563941
1244.01617	0.005479907
1242.08746	0.005320033
1240.15876	0.005327118
1238.23005	0.005168389
1236.30134	0.005176156
1234.37263	0.005017561
1232.44393	0.004857621
1230.51522	0.004697198
1228.58651	0.00453629
1226.65781	0.004374895
1224.7291	0.004382269
1222.80039	0.004220834
1220.87168	0.004228687
1218.94298	0.004066418
1217.01427	0.004074011
1215.08556	0.004081633
1213.15686	0.003919564
1211.22815	0.003756831
1209.29944	0.003594044
1207.37073	0.003602058
1205.44203	0.003438198
1203.51332	0.003273604
1201.58461	0.003280387
1199.6559	0.003287766
1197.7272	0.003121748
1195.79849	0.003128802
1193.86978	0.003135889
1191.94108	0.002967877
1190.01237	0.002974108
1188.08366	0.002805541
1186.15495	0.002812445
1184.22625	0.00264457
1182.29754	0.002653458
1180.36883	0.00266099
1178.44012	0.002488446
1176.51142	0.002492434
1174.58271	0.002675705
1172.654	0.002502681
1170.7253	0.002508511
1168.79659	0.00233519
1166.86788	0.002160605
1164.93917	0.00234657
1163.01047	0.002171553
1161.08176	0.002176673
1159.15305	0.002182215
1157.22435	0.002188184
1155.29564	0.002194185
1153.36693	0.002017238
1151.43822	0.002023175
1149.50952	0.002214022
1147.58081	0.002220988
1145.6521	0.002043091
1143.72339	0.002050326
1141.79469	0.002057228
1139.86598	0.002063016
1137.93727	0.002256912
1136.00857	0.002263297
1134.07986	0.002459792
1132.15115	0.002468198
1130.22244	0.002668191
1128.29374	0.002487562
1126.36503	0.002498078
1124.43632	0.00270166
1122.50761	0.002713704
1120.57891	0.00292113
1118.6502	0.002935421
1116.72149	0.002950433
1114.79279	0.003163931
1112.86408	0.003380394
1110.93537	0.0034
1109.00666	0.00362173
1107.07796	0.003643725
1105.14925	0.003665988
1103.22054	0.003687769
1101.29184	0.003914297
1099.36313	0.00413993
1097.43442	0.004364997
1095.50571	0.004588113
1093.57701	0.004809703
1091.6483	0.005032502
1089.71959	0.005046257
1087.79088	0.005274262
1085.86218	0.005716705
1083.93347	0.005738576
1082.00476	0.005975245
1080.07606	0.006212511
1078.14735	0.006453001
1076.21864	0.006691129
1074.28993	0.006927906
1072.36123	0.007380074
1070.43252	0.007615318
1068.50381	0.00785169
1066.5751	0.0080892
1064.6464	0.008327854
1062.71769	0.008569545
1060.78898	0.009030837
1058.86028	0.009269477
1056.93157	0.009723757
1055.00286	0.01017249
1053.07415	0.01039823
1051.14545	0.010845507
1049.21674	0.011074197
1047.28803	0.011522269
1045.35933	0.011973392
1043.43062	0.012203239
1041.50191	0.012658228
1039.5732	0.013114025
1037.6445	0.013573654
1035.71579	0.014028056
1033.78708	0.01470916
1031.85837	0.015388046
1029.92967	0.015841142
1028.00096	0.016514171
1026.07225	0.016729868
1024.14355	0.017160686
1022.21484	0.017809439
1020.28613	0.018456749
1018.35742	0.018876305
1016.42872	0.019733925
1014.50001	0.020141656
1012.5713	0.020764303
1010.64259	0.02138448
1008.71389	0.02199736
1006.78518	0.022617479
1004.85647	0.023235423
1002.92777	0.023872098
1000.99906	0.024731889
999.07035	0.025382932
997.14164	0.026252461
995.21294	0.027139418
993.28423	0.027808189
991.35552	0.028709183
989.42682	0.029411765
987.49811	0.030343008
985.5694	0.031064111
983.64069	0.032030042
981.71199	0.033015732
979.78328	0.033807829
977.85457	0.034844762
975.92586	0.035666218
973.99716	0.036486486
972.06845	0.037522604
970.13974	0.038557496
968.21104	0.039590444
966.28233	0.040620721
964.35362	0.041647597
962.42491	0.042680128
960.49621	0.043488265
958.5675	0.044772675
956.63879	0.045854562
954.71008	0.046722455
952.78138	0.047607935
950.85267	0.04876905
948.92396	0.049952875
946.99526	0.051184834
945.06655	0.052217454
943.13784	0.053048488
941.20913	0.054171705
939.28043	0.055352353
937.35172	0.056580566
935.42301	0.057859449
933.49431	0.059162697
931.5656	0.060237914
929.63689	0.061287028
927.70818	0.062339001
925.77948	0.063636364
923.85077	0.064938466
921.92206	0.066279377
919.99335	0.067376831
918.06465	0.068511553
916.13594	0.069685466
914.20723	0.071193866
912.27853	0.072495849
910.34982	0.073866816
908.42111	0.075007076
906.4924	0.076195932
904.5637	0.077413743
902.63499	0.078368066
900.70628	0.079845652
898.77757	0.081008101
896.84887	0.082449227
894.92016	0.083614089
892.99145	0.084829721
891.06275	0.086071987
889.13404	0.087369421
887.20533	0.088696766
885.27662	0.09005507
883.34792	0.091415465
881.41921	0.092807425
879.4905	0.09383378
877.5618	0.095496106
875.63309	0.096785226
873.70438	0.097653554
871.77567	0.098782609
869.84697	0.100245356
867.91826	0.101730837
865.98955	0.103239587
864.06084	0.104338473
862.13214	0.105453232
860.20343	0.106584212
858.27472	0.107692308
856.34602	0.108775811
854.41731	0.110244989
852.4886	0.111360239
850.55989	0.112866817
848.63119	0.11397198
846.70248	0.115047619
844.77377	0.116047491
842.84506	0.117443204
840.91636	0.11880805
838.98765	0.120575651
837.05894	0.12201799
835.13024	0.123034591
833.20153	0.124061636
831.27282	0.125396825
829.34411	0.125946592
827.41541	0.126952343
825.4867	0.128019324
823.55799	0.129097531
821.62929	0.13054087
819.70058	0.131589702
817.77187	0.132950349
815.84316	0.134377576
813.91446	0.135403727
811.98575	0.1360799
810.05704	0.137238494
808.12833	0.138351556
806.19963	0.138994508
804.27092	0.139949109
802.34221	0.140791153
800.41351	0.141517477
798.4848	0.142064846
796.55609	0.142979087
794.62738	0.14334471
792.69868	0.144136461
790.76997	0.144865786
788.84126	0.145106383
786.91255	0.145408163
784.98385	0.145346366
783.05514	0.145709431
781.12643	0.14522293
779.19773	0.145099703
777.26902	0.14461408
775.34031	0.144067797
773.4116	0.143522439
771.4829	0.142434489
769.55419	0.141772152
767.62548	0.140750105
765.69678	0.139309764
763.76807	0.137931034
761.83936	0.136612022
759.91065	0.135350988
757.98195	0.133669609
756.05324	0.132099285
754.12453	0.130160067
752.19582	0.128215943
750.26712	0.126320237
748.33841	0.123994922
746.4097	0.121764955
744.481	0.119523607
742.55229	0.117320819
740.62358	0.11515411
738.69487	0.112875536
736.76617	0.110202325
734.83746	0.107991361
732.90875	0.106244579
730.98004	0.104048759
729.05134	0.101835664
727.12263	0.099209833
725.19392	0.097044552
723.26522	0.094900222
721.33651	0.092732947
719.4078	0.09058296
717.47909	0.088367899
715.55039	0.08612874
713.62168	0.084359325
711.69297	0.082147774
709.76427	0.08033241
707.83556	0.078996283
705.90685	0.077642657
703.97814	0.076271186
702.04944	0.074442864
700.12073	0.072588348
698.19202	0.071188071
696.26331	0.069282946
694.33461	0.068359375
692.4059	0.066929134
690.47719	0.065972222
688.54849	0.0645
686.61978	0.063540091
684.69107	0.062627291
682.76236	0.061696658
680.83366	0.060165975
678.90495	0.059131345
676.97624	0.057550158
675.04753	0.057036247
673.11883	0.057081314
671.19012	0.056583243
669.26141	0.055525014
667.33271	0.054414214
665.404	0.053280987
663.47529	0.052691218
661.54658	0.052661706
659.61788	0.05205321
657.68917	0.051431911
655.76046	0.050827423
653.83176	0.050239234
651.90305	0.050181378
649.97434	0.049511002
648.04563	0.048177888
646.11693	0.048034934
644.18822	0.047828823
642.25951	0.047649301
640.3308	0.047466325
638.4021	0.046601942
636.47339	0.046405229
634.54468	0.045574637
632.61598	0.044786096
630.68727	0.044654939
628.75856	0.043865661
626.82985	0.04375
624.90115	0.042927516
622.97244	0.043509272
621.04373	0.042630058
619.11502	0.041697147
617.18632	0.040680473
615.25761	0.041106129
613.3289	0.040723982
611.4002	0.039513678
609.47149	0.039050536
607.54278	0.038580247
605.61407	0.039688716
603.68537	0.039246468
601.75666	0.038827258
