4999.20917	0.741176471
4997.28046	0.740046838
4995.35176	0.738317757
4993.42305	0.738927739
4991.49434	0.737209302
4989.56564	0.737819026
4987.63693	0.738425926
4985.70822	0.740740741
4983.77951	0.741339492
4981.85081	0.741935484
4979.9221	0.740229885
4977.99339	0.740825688
4976.06468	0.739130435
4974.13598	0.739726027
4972.20727	0.740318907
4970.27856	0.742596811
4968.34986	0.743181818
4966.42115	0.741496599
4964.49244	0.742081448
4962.56373	0.742663657
4960.63503	0.740990991
4958.70632	0.741573034
4956.77761	0.742152466
4954.8489	0.742729306
4952.9202	0.743303571
4950.99149	0.743875278
4949.06278	0.742222222
4947.13408	0.742793792
4945.20537	0.743362832
4943.27666	0.74392936
4941.34795	0.744493392
4939.41925	0.745054945
4937.49054	0.743421053
4935.56183	0.743982495
4933.63313	0.744541485
4931.70442	0.745098039
4929.77571	0.743478261
4927.847	0.744034707
4925.9183	0.744588745
4923.98959	0.745140389
4922.06088	0.745689655
4920.13217	0.744086022
4918.20347	0.744635193
4916.27476	0.745182013
4914.34605	0.745726496
4912.41735	0.746268657
4910.48864	0.744680851
4908.55993	0.74522293
4906.63122	0.745762712
4904.70252	0.744186047
4902.77381	0.744725738
4900.8451	0.745263158
4898.91639	0.745798319
4896.98769	0.746331237
4895.05898	0.746861925
4893.13027	0.747390397
4891.20157	0.747916667
4889.27286	0.748440748
4887.34415	0.748962656
4885.41544	0.747412008
4883.48674	0.746391753
4881.55803	0.74691358
4879.62932	0.748971193
4877.70062	0.74795082
4875.77191	0.748466258
4873.8432	0.746938776
4871.91449	0.747454175
4869.98579	0.75
4868.05708	0.748478702
4866.12837	0.747474747
4864.19966	0.749494949
4862.27096	0.75
4860.34225	0.750503018
4858.41354	0.748995984
4856.48484	0.749498998
4854.55613	0.75
4852.62742	0.750499002
4850.69871	0.749502982
4848.77001	0.75
4846.8413	0.75049505
4844.91259	0.749011858
4842.98388	0.750988142
4841.05518	0.75147929
4839.12647	0.750491159
4837.19776	0.750980392
4835.26906	0.75146771
4833.34035	0.751953125
4831.41164	0.752436647
4829.48293	0.752918288
4827.55423	0.751456311
4825.62552	0.750483559
4823.69681	0.750965251
4821.76811	0.751445087
4819.8394	0.751923077
4817.91069	0.752399232
4815.98198	0.752873563
4814.05328	0.751908397
4812.12457	0.752380952
4810.19586	0.752851711
4808.26715	0.753320683
4806.33845	0.751893939
4804.40974	0.752362949
4802.48103	0.752830189
4800.55233	0.755178908
4798.62362	0.754221388
4796.69491	0.752808989
4794.7662	0.753271028
4792.8375	0.753731343
4790.90879	0.754189944
4788.98008	0.753246753
4787.05137	0.753703704
4785.12267	0.754158965
4783.19396	0.754612546
4781.26525	0.755064457
4779.33655	0.75412844
4777.40784	0.754578755
4775.47913	0.755027422
4773.55042	0.755474453
4771.62172	0.755919854
4769.69301	0.756363636
4767.7643	0.756805808
4765.8356	0.757246377
4763.90689	0.75631769
4761.97818	0.756756757
4760.04947	0.755395683
4758.12077	0.755834829
4756.19206	0.756272401
4754.26335	0.756708408
4752.33464	0.755793226
4750.40594	0.756227758
4748.47723	0.755319149
4746.54852	0.755752212
4744.61982	0.756183746
4742.69111	0.756613757
4740.7624	0.757042254
4738.83369	0.757469244
4736.90499	0.757894737
4734.97628	0.758741259
4733.04757	0.759162304
4731.11886	0.75826087
4729.19016	0.758680556
4727.26145	0.759098787
4725.33274	0.759515571
4723.40404	0.759930915
4721.47533	0.760344828
4719.54662	0.759450172
4717.61791	0.759862779
4715.68921	0.758561644
4713.7605	0.757679181
4711.83179	0.758091993
4709.90308	0.758503401
4707.97438	0.758913413
4706.04567	0.761016949
4704.11696	0.76142132
4702.18826	0.760539629
4700.25955	0.760942761
4698.33084	0.760067114
4696.40213	0.760469012
4694.47343	0.760869565
4692.54472	0.76
4690.61601	0.760399334
4688.68731	0.760797342
4686.7586	0.76119403
4684.82989	0.760330579
4682.90118	0.760726073
4680.97248	0.76276771
4679.04377	0.761904762
4677.11506	0.762295082
4675.18635	0.762684124
4673.25765	0.763071895
4671.32894	0.763458401
4669.40023	0.762601626
4667.47153	0.762987013
4665.54282	0.762135922
4663.61411	0.762520194
4661.6854	0.762903226
4659.7567	0.763285024
4657.82799	0.763665595
4655.89928	0.764423077
4653.97057	0.7648
4652.04187	0.763955343
4650.11316	0.76433121
4648.18445	0.764705882
4646.25575	0.763866878
4644.32704	0.763033175
4642.39833	0.764984227
4640.46962	0.765354331
4638.54092	0.76572327
4636.61221	0.763322884
4634.6835	0.765258216
4632.7548	0.765625
4630.82609	0.764797508
4628.89738	0.765163297
4626.96867	0.764341085
4625.03997	0.764705882
4623.11126	0.763888889
4621.18255	0.765793529
4619.25384	0.766153846
4617.32514	0.766513057
4615.39643	0.765696784
4613.46772	0.764885496
4611.53902	0.766768293
4609.61031	0.767123288
4607.6816	0.767477204
4605.75289	0.766666667
4603.82419	0.767019667
4601.89548	0.766214178
4599.96677	0.766566265
4598.03806	0.766917293
4596.10936	0.766116942
4594.18065	0.767964072
4592.25194	0.767164179
4590.32324	0.767511177
4588.39453	0.767857143
4586.46582	0.767062315
4584.53711	0.768888889
4582.60841	0.768094535
4580.6797	0.768436578
4578.75099	0.768777614
4576.82229	0.767988253
4574.89358	0.768328446
4572.96487	0.769005848
4571.03616	0.769343066
4569.10746	0.768558952
4567.17875	0.768895349
4565.25004	0.769565217
4563.32133	0.769898698
4561.39263	0.770231214
4559.46392	0.76945245
4557.53521	0.771223022
4555.60651	0.770444763
4553.6778	0.770773639
4551.74909	0.77
4549.82038	0.770328103
4547.89168	0.770655271
4545.96297	0.769886364
4544.03426	0.771631206
4542.10555	0.770862801
4540.17685	0.771186441
4538.24814	0.771830986
4536.31943	0.772151899
4534.39073	0.771388499
4532.46202	0.771708683
4530.53331	0.772027972
4528.6046	0.771269177
4526.6759	0.772980501
4524.74719	0.772222222
4522.81848	0.773925104
4520.88978	0.773167358
4518.96107	0.772413793
4517.03236	0.772727273
4515.10365	0.771978022
4513.17495	0.773662551
4511.24624	0.772913817
4509.31753	0.773224044
4507.38882	0.773841962
4505.46012	0.77414966
4503.53141	0.773405699
4501.6027	0.773712737
4499.674	0.772972973
4497.74529	0.77462888
4495.81658	0.773889637
4493.88787	0.775537634
4491.95917	0.774798928
4490.03046	0.775100402
4488.10175	0.774365821
4486.17304	0.774666667
4484.24434	0.775265957
4482.31563	0.775564409
4480.38692	0.77615894
4478.45822	0.775429326
4476.52951	0.775725594
4474.6008	0.776315789
4472.67209	0.776609724
4470.74339	0.775884666
4468.81468	0.775163399
4466.88597	0.776762402
4464.95727	0.776041667
4463.02856	0.7763329
4461.09985	0.7769131
4459.17114	0.777202073
4457.24244	0.777777778
4455.31373	0.778064516
4453.38502	0.777348777
4451.45631	0.777634961
4449.52761	0.778205128
4447.5989	0.777493606
4445.67019	0.777777778
4443.74149	0.778343949
4441.81278	0.778625954
4439.88407	0.779187817
4437.95536	0.779467681
4436.02666	0.780025284
4434.09795	0.779319042
4432.16924	0.779596977
4430.24053	0.778894472
4428.31183	0.779448622
4426.38312	0.779724656
4424.45441	0.780274657
4422.52571	0.780548628
4420.597	0.779850746
4418.66829	0.780124224
4416.73958	0.780669145
4414.81088	0.779975278
4412.88217	0.779284834
4410.95346	0.779827798
4409.02476	0.78009828
4407.09605	0.780637255
4405.16734	0.780905753
4403.23863	0.78021978
4401.30993	0.781707317
4399.38122	0.782238443
4397.45251	0.781553398
4395.5238	0.781818182
4393.5951	0.781136638
4391.66639	0.782608696
4389.73768	0.781927711
4387.80898	0.782451923
4385.88027	0.782713085
4383.95156	0.782035928
4382.02285	0.78255675
4380.09415	0.782816229
4378.16544	0.783333333
4376.23673	0.783590963
4374.30802	0.784104389
4372.37932	0.783431953
4370.45061	0.783943329
4368.5219	0.783274441
4366.5932	0.783529412
4364.66449	0.784037559
4362.73578	0.783372365
4360.80707	0.783878505
4358.87837	0.783216783
4356.94966	0.78372093
4355.02095	0.783972125
4353.09225	0.784472769
4351.16354	0.783815029
4349.23483	0.784064665
4347.30612	0.784562212
4345.37742	0.784810127
4343.44871	0.785304248
4341.52	0.78465063
4339.59129	0.785142857
4337.66259	0.785632839
4335.73388	0.785876993
4333.80517	0.786363636
4331.87647	0.785714286
4329.94776	0.786199095
4328.01905	0.786440678
4326.09034	0.78692221
4324.16164	0.786276715
4322.23293	0.786756453
4320.30422	0.786995516
4318.37551	0.787472036
4316.44681	0.786830357
4314.5181	0.787305122
4312.58939	0.786666667
4310.66069	0.78713969
4308.73198	0.788482835
4306.80327	0.787845304
4304.87456	0.78831312
4302.94586	0.787678768
4301.01715	0.789010989
4299.08844	0.788377193
4297.15974	0.788840263
4295.23103	0.788209607
4293.30232	0.788671024
4291.37361	0.788043478
4289.44491	0.789359392
4287.5162	0.789815818
4285.58749	0.789189189
4283.65878	0.789644013
4281.73008	0.78987069
4279.80137	0.790322581
4277.87266	0.790772532
4275.94396	0.790149893
4274.01525	0.790598291
4272.08654	0.789978678
4270.15783	0.790425532
4268.22913	0.790648247
4266.30042	0.790031813
4264.37171	0.79047619
4262.443	0.790918691
4260.5143	0.790305585
4258.58559	0.790746583
4256.65688	0.791185729
4254.72818	0.790575916
4252.79947	0.791013584
4250.87076	0.792275574
4248.94205	0.791666667
4247.01335	0.792924037
4245.08464	0.79231568
4243.15593	0.792746114
4241.22723	0.793174767
4239.29852	0.792783505
4237.36981	0.79218107
4235.4411	0.793422405
4233.5124	0.792820513
4231.58369	0.793244626
4229.65498	0.793667007
4227.72627	0.793068298
4225.79757	0.793489318
4223.86886	0.792893401
4221.94015	0.79331307
4220.01145	0.793522267
4218.08274	0.793939394
4216.15403	0.794354839
4214.22532	0.794768612
4212.29662	0.795180723
4210.36791	0.794589178
4208.4392	0.795795796
4206.51049	0.795409182
4204.58179	0.794820717
4202.65308	0.795228628
4200.72437	0.794642857
4198.79567	0.795049505
4196.86696	0.795454545
4194.93825	0.795857988
4193.00954	0.796259843
4191.08084	0.796460177
4189.15213	0.796859666
4187.22342	0.797257591
4185.29472	0.796676442
4183.36601	0.797073171
4181.4373	0.798245614
4179.50859	0.796890185
4177.57989	0.79728419
4175.65118	0.79767667
4173.72247	0.798067633
4171.79376	0.797492768
4169.86506	0.797882579
4167.93635	0.798270893
4166.00764	0.79789272
4164.07894	0.797323136
4162.15023	0.798471824
4160.22152	0.798856053
4158.29281	0.79923882
4156.36411	0.798670465
4154.4354	0.799052133
4152.50669	0.799432356
4150.57798	0.799811143
4148.64928	0.800188501
4146.72057	0.799623706
4144.79186	0.799249531
4142.86316	0.799625468
4140.93445	0.8
4139.00574	0.799440299
4137.07703	0.79981378
4135.14833	0.800185874
4133.21962	0.800556586
4131.29091	0.800925926
4129.36221	0.802035153
4127.4335	0.801477378
4125.50479	0.801843318
4123.57608	0.801470588
4121.64738	0.800917431
4119.71867	0.801282051
4117.78996	0.801645338
4115.86125	0.802007299
4113.93255	0.802367942
4112.00384	0.801818182
4110.07513	0.802177858
4108.14643	0.801809955
4106.21772	0.801264679
4104.28901	0.801623084
4102.3603	0.801980198
4100.4316	0.802336029
4098.50289	0.802690583
4096.57418	0.803043868
4094.64547	0.803395889
4092.71677	0.802854594
4090.78806	0.804096171
4088.85935	0.803555556
4086.93065	0.803191489
4085.00194	0.803539823
4083.07323	0.803886926
4081.14452	0.804232804
4079.21582	0.803697183
4077.28711	0.804042179
4075.3584	0.804385965
4073.4297	0.804728546
4071.50099	0.80506993
4069.57228	0.805410122
4067.64357	0.805047868
4065.71487	0.80538662
4063.78616	0.805724198
4061.85745	0.806060606
4059.92874	0.805699482
4058.00004	0.805172414
4056.07133	0.805507745
4054.14262	0.805150215
4052.21392	0.806174957
4050.28521	0.806506849
4048.3565	0.806837607
4046.42779	0.807167235
4044.49909	0.806808511
4042.57038	0.807136788
4040.64167	0.807463953
4038.71296	0.806943268
4036.78426	0.807432432
4034.85555	0.807757167
4032.92684	0.807239057
4030.99814	0.807563025
4029.06943	0.807208718
4027.14072	0.807531381
4025.21201	0.807852966
4023.28331	0.808173478
4021.3546	0.8078203
4019.42589	0.808139535
4017.49719	0.808457711
4015.56848	0.808774834
4013.63977	0.809090909
4011.71106	0.808738664
4009.78236	0.809053498
4007.85365	0.809367297
4005.92494	0.809016393
4003.99623	0.809328969
4002.06753	0.809640523
4000.13882	0.809290954
3998.21011	0.809601302
3996.28141	0.809910642
3994.3527	0.810218978
3992.42399	0.810526316
3990.49528	0.81083266
3988.56658	0.811138015
3986.63787	0.811594203
3984.70916	0.811897106
3982.78045	0.811547715
3980.85175	0.811048839
3978.92304	0.811350919
3976.99433	0.811652035
3975.06563	0.811952191
3973.13692	0.812400636
3971.20821	0.812698413
3969.2795	0.812351544
3967.3508	0.812648221
3965.42209	0.812943962
3963.49338	0.813238771
3961.56468	0.812106918
3959.63597	0.812401884
3957.70726	0.812695925
3955.77855	0.813135262
3953.84985	0.81342701
3951.92114	0.812938426
3949.99243	0.813229572
3948.06372	0.813519814
3946.13502	0.813953488
3944.20631	0.814241486
3942.2776	0.813899614
3940.3489	0.813559322
3938.42019	0.813989239
3936.49148	0.814274751
3934.56277	0.814417178
3932.63407	0.813935681
3930.70536	0.814362108
3928.77665	0.815408085
3926.84794	0.814307458
3924.91924	0.814589666
3922.99053	0.814871017
3921.06182	0.815151515
3919.13312	0.814674735
3917.20441	0.81570997
3915.2757	0.81626506
3913.34699	0.816066066
3911.41829	0.816479401
3909.48958	0.816005984
3907.56087	0.816005984
3905.63217	0.815868263
3903.70346	0.814510097
3901.77475	0.814787155
3899.84604	0.815338794
3897.91734	0.816765579
3895.98863	0.817307692
3894.05992	0.816838996
3892.13121	0.816371681
3890.20251	0.817378498
3888.2738	0.816911765
3886.34509	0.817046289
3884.41639	0.81744868
3882.48768	0.817117776
3880.55897	0.816788321
3878.63026	0.817321689
3876.70156	0.81771968
3874.77285	0.817851959
3872.84414	0.818577649
3870.91543	0.81870921
3868.98673	0.81910275
3867.05802	0.818903319
3865.12931	0.818574514
3863.20061	0.818965517
3861.2719	0.819484241
3859.34319	0.819871337
3857.41448	0.819027182
3855.48578	0.817790531
3853.55707	0.817204301
3851.62836	0.818959373
3849.69966	0.819985826
3847.77095	0.820621469
3845.84224	0.820748059
3843.91353	0.820169252
3841.98483	0.819591261
3840.05612	0.81971831
3838.12741	0.819971871
3836.1987	0.820476858
3834.27	0.820979021
3832.34129	0.82205164
3830.41258	0.821851079
3828.48388	0.822222222
3826.55517	0.821898822
3824.62646	0.821898822
3822.69775	0.821898822
3820.76905	0.821453287
3818.84034	0.82194617
3816.91163	0.823002755
3814.98292	0.822923816
3813.05422	0.823529412
3811.12551	0.823890785
3809.1968	0.823890785
3807.2681	0.823449216
3805.33939	0.823689585
3803.41068	0.823809524
3801.48197	0.824048913
3799.55327	0.823848238
3797.62456	0.824324324
3795.69585	0.824797844
3793.76715	0.825268817
3791.83844	0.825737265
3789.90973	0.82541806
3787.98102	0.825651303
3786.05232	0.825883923
3784.12361	0.825565912
3782.1949	0.825132979
3780.26619	0.825913621
3778.33749	0.825712392
3776.40878	0.826173166
3774.48007	0.82651715
3772.55137	0.82663151
3770.62266	0.826086957
3768.69395	0.82642998
3766.76524	0.826771654
3764.83654	0.827111984
3762.90783	0.826797386
3760.97912	0.826370757
3759.05041	0.826597132
3757.12171	0.826284971
3755.193	0.826397919
3753.26429	0.826822917
3751.33559	0.826171875
3749.40688	0.826510721
3747.47817	0.825551232
3745.54946	0.825551232
3743.62076	0.826115061
3741.69205	0.827652733
3739.76334	0.827453496
3737.83464	0.826700899
3735.90593	0.826170622
3733.97722	0.827255278
3732.04851	0.828553219
3730.11981	0.829206349
3728.1911	0.828897338
3726.26239	0.829113924
3724.33368	0.828806064
3722.40498	0.829760404
3720.47627	0.829559748
3718.54756	0.8293601
3716.61886	0.830200501
3714.69015	0.830200501
3712.76144	0.829573935
3710.83273	0.829893684
3708.90403	0.830529595
3706.97532	0.831055901
3705.04661	0.831885856
3703.1179	0.830855019
3701.1892	0.831683168
3699.26049	0.831585441
3697.33178	0.832512315
3695.40308	0.832718327
3693.47437	0.832103321
3691.54566	0.831488315
3689.61695	0.831591887
3687.68825	0.832720588
3685.75954	0.833333333
3683.83083	0.833231893
3681.90213	0.832826748
3679.97342	0.832826748
3678.04471	0.832116788
3676.116	0.832014607
3674.1873	0.832928311
3672.25859	0.833333333
3670.32988	0.833635814
3668.40117	0.834137515
3666.47247	0.834234234
3664.54376	0.834631516
3662.61505	0.835427887
3660.68635	0.835026898
3658.75764	0.835026898
3656.82893	0.835125448
3654.90022	0.834824091
3652.97152	0.834227788
3651.04281	0.833432836
3649.1141	0.83353222
3647.18539	0.83412604
3645.25669	0.835308057
3643.32798	0.835794448
3641.39927	0.836084906
3639.47057	0.836277974
3637.54186	0.836470588
3635.61315	0.836075206
3633.68444	0.836075206
3631.75574	0.835390947
3629.82703	0.835197175
3627.89832	0.835093897
3625.96961	0.836842105
3624.04091	0.83722287
3622.1122	0.83663944
3620.18349	0.836056009
3618.25479	0.835664336
3616.32608	0.835951134
3614.39737	0.836141778
3612.46866	0.836236934
3610.53996	0.836331979
3608.61125	0.836616454
3606.68254	0.837572254
3604.75384	0.837946943
3602.82513	0.838133641
3600.89642	0.837744534
3598.96771	0.837931034
3597.03901	0.838117107
3595.1103	0.838302752
3593.18159	0.83906071
3591.25288	0.838100686
3589.32418	0.837528604
3587.39547	0.837142857
3585.46676	0.838654504
3583.53806	0.839590444
3581.60935	0.839772727
3579.68064	0.839954597
3577.75193	0.840136054
3575.82323	0.839841539
3573.89452	0.840022612
3571.96581	0.840112994
3570.0371	0.839548023
3568.1084	0.838418079
3566.17969	0.838691483
3564.25098	0.839617333
3562.32228	0.841011236
3560.39357	0.841278744
3558.46486	0.841456583
3556.53615	0.842193621
3554.60745	0.842281879
3552.67874	0.841899441
3550.75003	0.841517857
3548.82133	0.841137124
3546.89262	0.84178273
3544.96391	0.841490545
3543.0352	0.842309828
3541.1065	0.843039379
3539.17779	0.84265928
3537.24908	0.842833426
3535.32037	0.842541436
3533.39167	0.842715232
3531.46296	0.843353558
3529.53425	0.843439912
3527.60555	0.843526171
3525.67684	0.843148046
3523.74813	0.843320506
3521.81942	0.843578485
3519.89072	0.844298246
3517.96201	0.844468784
3516.0333	0.845185996
3514.10459	0.844893501
3512.17589	0.844517185
3510.24718	0.844686649
3508.31847	0.844855743
3506.38977	0.84502447
3504.46106	0.845108696
3502.53235	0.844818231
3500.60364	0.845528455
3498.67494	0.845238095
3496.74623	0.845405405
3494.81752	0.846112311
3492.88882	0.846278317
3490.96011	0.846443966
3489.0314	0.846609257
3487.10269	0.846774194
3485.17399	0.846484165
3483.24528	0.846648794
3481.31657	0.846813069
3479.38786	0.847058824
3477.45916	0.847222222
3475.53045	0.84791889
3473.60174	0.847629196
3471.67304	0.848323576
3469.74433	0.848034006
3467.81562	0.848195329
3465.88691	0.84790673
3463.95821	0.848067761
3462.0295	0.848308668
3460.10079	0.848021108
3458.17208	0.848708487
3456.24338	0.848947368
3454.31467	0.848660011
3452.38596	0.848818898
3450.45726	0.848977451
3448.52855	0.849135673
3446.59984	0.848849372
3444.67113	0.849529781
3442.74243	0.849765258
3440.81372	0.85
3438.88501	0.850234009
3436.95631	0.849948079
3435.0276	0.850181441
3433.09889	0.850414079
3431.17018	0.850645995
3429.24148	0.850877193
3427.31277	0.851107676
3425.38406	0.851337449
3423.45535	0.851052902
3421.52665	0.851282051
3419.59794	0.851510497
3417.66923	0.851303015
3415.74053	0.851530612
3413.81182	0.851757514
3411.88311	0.852417303
3409.9544	0.852134146
3408.0257	0.852791878
3406.09699	0.85250887
3404.16828	0.852226721
3402.23957	0.852450733
3400.31087	0.853178607
3398.38216	0.853400504
3396.45345	0.853192559
3394.52475	0.853413655
3392.59604	0.853707415
3390.66733	0.8535
3388.73862	0.853792415
3386.80992	0.854010962
3384.88121	0.854228856
3382.9525	0.8544461
3381.0238	0.854238969
3379.09509	0.854455446
3377.16638	0.85467128
3375.23767	0.854886476
3373.30897	0.854679803
3371.38026	0.854894245
3369.45155	0.855108055
3367.52284	0.855321236
3365.59414	0.855044074
3363.66543	0.855256724
3361.73672	0.855051245
3359.80802	0.855750487
3357.87931	0.855961071
3355.9506	0.85617104
3354.02189	0.855480116
3352.09319	0.855690073
3350.16448	0.85589942
3348.23577	0.85610816
3346.30706	0.856316297
3344.37836	0.856111646
3342.44965	0.856319077
3340.52094	0.857005758
3338.59224	0.857211308
3336.66353	0.857416268
3334.73482	0.857211079
3332.80611	0.857892227
3330.87741	0.858095238
3328.9487	0.857889734
3327.01999	0.858092074
3325.09129	0.858293839
3323.16258	0.858495031
3321.23387	0.858290033
3319.30516	0.858490566
3317.37646	0.858690532
3315.44775	0.858889934
3313.51904	0.85915493
3311.59033	0.858950328
3309.66163	0.858746492
3307.73292	0.85941149
3305.80421	0.860074627
3303.87551	0.859869646
3301.9468	0.860130112
3300.01809	0.859925788
3298.08938	0.860120426
3296.16068	0.859916782
3294.23197	0.860572484
3292.30326	0.860368664
3290.37455	0.861021629
3288.44585	0.860817639
3286.51714	0.86146789
3284.58843	0.861263736
3282.65973	0.861911294
3280.73102	0.861706983
3278.80231	0.861958998
3276.8736	0.861755343
3274.9449	0.861552429
3273.01619	0.862194016
3271.08748	0.86199095
3269.15878	0.862240289
3267.23007	0.862426703
3265.30136	0.862224223
3263.37265	0.862859712
3261.44395	0.863105925
3259.51524	0.862903226
3257.58653	0.863534676
3255.65782	0.863331845
3253.72912	0.863514719
3251.80041	0.863757792
3249.8717	0.863555556
3247.943	0.864181092
3246.01429	0.864361702
3244.08558	0.86460177
3242.15687	0.864399293
3240.22817	0.86501985
3238.29946	0.864817261
3236.37075	0.865054945
3234.44204	0.864853006
3232.51334	0.865089794
3230.58463	0.865325754
3228.65592	0.865502183
3226.72722	0.865736704
3224.79851	0.865970409
3222.8698	0.866145154
3220.94109	0.86637744
3219.01239	0.866608922
3217.08368	0.866407263
3215.15497	0.866637894
3213.22627	0.866810345
3211.29756	0.867039587
3209.36885	0.866838488
3207.44014	0.866695242
3205.51144	0.867294521
3203.58273	0.867521368
3201.65402	0.86774744
3199.72531	0.867916489
3197.79661	0.867715866
3195.8679	0.867940552
3193.93919	0.867740568
3192.01049	0.867964452
3190.08178	0.868187579
3188.15307	0.868776371
3186.22436	0.868997473
3184.29566	0.86921783
3182.36695	0.869017632
3180.43824	0.869237217
3178.50953	0.869456067
3176.58083	0.869674185
3174.65212	0.869891576
3172.72341	0.870108243
3170.79471	0.87032419
3168.866	0.870485679
3166.93729	0.870700373
3165.00858	0.870914357
3163.07988	0.870714581
3161.15117	0.870927835
3159.22246	0.871140387
3157.29376	0.87135224
3155.36505	0.871563398
3153.43634	0.871364195
3151.50763	0.871574642
3149.57893	0.871784402
3147.65022	0.872349103
3145.72151	0.872149837
3143.7928	0.872357724
3141.8641	0.872564935
3139.93539	0.872417983
3138.00668	0.872977346
3136.07798	0.873182553
3134.14927	0.873387097
3132.22056	0.873590982
3130.29185	0.873041382
3128.36315	0.873245086
3126.43444	0.873798077
3124.50573	0.874
3122.57702	0.873801917
3120.64832	0.87400319
3118.71961	0.873855949
3116.7909	0.874453715
3114.8622	0.874652916
3112.93349	0.874851485
3111.00478	0.875049427
3109.07607	0.875246743
3107.14737	0.875098503
3105.21866	0.875688434
3103.28995	0.876227898
3101.36125	0.876029816
3099.43254	0.87622405
3097.50383	0.876075059
3095.57512	0.87626854
3093.64642	0.876461419
3091.71771	0.877042802
3089.789	0.877233877
3087.86029	0.877084141
3085.93159	0.877274487
3084.00288	0.877803558
3082.07417	0.877606178
3080.14547	0.877794911
3078.21676	0.877645248
3076.28805	0.877833269
3074.35934	0.878067485
3072.43064	0.878254211
3070.50193	0.878440367
3068.57322	0.878579611
3066.64451	0.878764773
3064.71581	0.878949372
3062.7871	0.879133409
3060.85839	0.878983308
3058.92969	0.879166667
3057.00098	0.87934947
3055.07227	0.879577199
3053.14356	0.879758764
3051.21486	0.879563417
3049.28615	0.880075188
3047.35744	0.880255255
3045.42874	0.880434783
3043.50003	0.880613772
3041.57132	0.880792227
3039.64261	0.881343284
3037.71391	0.880819367
3035.7852	0.880996653
3033.85649	0.881173413
3031.92778	0.881676558
3029.99908	0.881851852
3028.07037	0.882026627
3026.14166	0.882200886
3024.21296	0.8820059
3022.28425	0.882504604
3020.35554	0.882677455
3018.42683	0.882482556
3016.49813	0.882978723
3014.56942	0.882783883
3012.64071	0.882955377
3010.712	0.883449032
3008.7833	0.883941606
3006.85459	0.883746356
3004.92588	0.883873316
3002.99718	0.884
3001.06847	0.884126408
2999.13976	0.88425254
2997.21105	0.884336476
2995.28235	0.88442029
2993.35364	0.884866039
2991.42493	0.884949349
2989.49623	0.884990958
2987.56752	0.885032538
2985.63881	0.885394071
2983.7101	0.885394071
2981.7814	0.885394071
2979.85269	0.886034732
2977.92398	0.885952209
2975.99527	0.886511965
2974.06657	0.886669088
2972.13786	0.886785584
2970.20915	0.886861314
2968.28045	0.88730333
2966.35174	0.887463343
2964.42303	0.887747616
2962.49432	0.887829912
2960.56562	0.887710315
2958.63691	0.888037929
2956.7082	0.888081395
2954.77949	0.888165038
2952.85079	0.888207717
2950.92208	0.888569375
2948.99337	0.888490498
2947.06467	0.88869005
2945.13596	0.888809439
2943.20725	0.888888889
2941.27854	0.889246159
2939.34984	0.889246159
2937.42113	0.889563974
2935.49242	0.889563974
2933.56372	0.88960343
2931.63501	0.89
2929.7063	0.890117731
2927.77759	0.890274314
2925.84889	0.890469417
2923.92018	0.890741398
2921.99147	0.891050584
2920.06276	0.891043724
2918.13406	0.891075193
2916.20535	0.891068301
2914.27664	0.891410615
2912.34794	0.891054647
2910.41923	0.891357168
2908.49052	0.891582958
2906.56181	0.891845197
2904.63311	0.892068966
2902.7044	0.892328861
2900.77569	0.892244338
2898.84698	0.892160219
2896.91828	0.892381278
2894.98957	0.892601432
2893.06086	0.892820687
2891.13216	0.893002717
2889.20345	0.893523228
2887.27474	0.893364929
2885.34603	0.893811295
2883.41733	0.893918919
2881.48862	0.893688829
2879.55991	0.89376054
2877.63121	0.894133513
2875.7025	0.894541779
2873.77379	0.894648267
2871.84508	0.894489247
2869.91638	0.894666219
2867.98767	0.894842599
2866.05896	0.894684052
2864.13025	0.894824708
2862.20155	0.895263509
2860.27284	0.895403065
2858.34413	0.895840266
2856.41543	0.895681063
2854.48672	0.895854063
2852.55801	0.896060907
2850.6293	0.896335424
2848.7006	0.896313364
2846.77189	0.896291434
2844.84318	0.896269634
2842.91447	0.89654047
2840.98577	0.897101921
2839.05706	0.897335932
2837.12835	0.897244733
2835.19965	0.897120673
2833.27094	0.897609819
2831.34223	0.897774911
2829.41352	0.897939472
2827.48482	0.898103504
2825.55611	0.897946085
2823.6274	0.89810958
2821.6987	0.89856
2819.76999	0.898689677
2817.84128	0.898851308
2815.91257	0.898693852
2813.98387	0.898822781
2812.05516	0.89866582
2810.12645	0.899111675
2808.19774	0.899239544
2806.26904	0.899683544
2804.34033	0.899810367
2802.41162	0.899936869
2800.48292	0.90037831
2798.55421	0.900220334
2796.6255	0.90066017
2794.69679	0.900502197
2792.76809	0.900626959
2790.83938	0.900751409
2788.91067	0.901188243
2786.98196	0.901030284
2785.05326	0.901153726
2783.12455	0.901276861
2781.19584	0.901399689
2779.26714	0.901552795
2777.33843	0.901954701
2775.40972	0.901796778
2773.48101	0.901918317
2771.55231	0.902348578
2769.6236	0.902469136
2767.69489	0.902589396
2765.76619	0.90270936
2763.83748	0.902829028
2761.90877	0.902948403
2759.98006	0.903374233
2758.05136	0.903492647
2756.12265	0.903610771
2754.19394	0.903728606
2752.26523	0.903846154
2750.33653	0.903658537
2748.40782	0.90408039
2746.47911	0.90419708
2744.55041	0.904313487
2742.6217	0.904429612
2740.69299	0.904545455
2738.76428	0.90496368
2736.83558	0.905078597
2734.90687	0.905495169
2732.97816	0.905609168
2731.04945	0.905722892
2729.12075	0.905836342
2727.19204	0.905949519
2725.26333	0.906062425
2723.33463	0.905903506
2721.40592	0.906016163
2719.47721	0.90612855
2717.5485	0.906240669
2715.6198	0.906650761
2713.69109	0.90676199
2711.76238	0.906872954
2709.83368	0.907280832
2707.90497	0.907390917
2705.97626	0.907500741
2704.04755	0.907610305
2702.11885	0.90771961
2700.19014	0.908124077
2698.26143	0.907937445
2696.33272	0.908045977
2694.40402	0.908154254
2692.47531	0.908556307
2690.5466	0.90866373
2688.6179	0.908770901
2686.68919	0.909170817
2684.76048	0.909277144
2682.83177	0.909117475
2680.90307	0.909223584
2678.97436	0.909329446
2677.04565	0.909726267
2675.11694	0.909831297
2673.18824	0.909936084
2671.25953	0.910040627
2669.33082	0.910144928
2667.40212	0.910248987
2665.47341	0.910616141
2663.5447	0.910456384
2661.61599	0.91084824
2659.68729	0.910951009
2657.75858	0.911053541
2655.82987	0.911155837
2653.90117	0.911257898
2651.97246	0.911359725
2650.04375	0.911747851
2648.11504	0.911848884
2646.18634	0.91197485
2644.25763	0.912075364
2642.32892	0.912175649
2640.40021	0.912275705
2638.47151	0.912660028
2636.5428	0.913018761
2634.61409	0.913117547
2632.68539	0.913216109
2630.75668	0.913314448
2628.82797	0.913412564
2626.89926	0.913793103
2624.97056	0.913890457
2623.04185	0.913729913
2621.11314	0.913827091
2619.18443	0.913924051
2617.25573	0.91430177
2615.32702	0.914397979
2613.39831	0.914493973
2611.46961	0.914333707
2609.5409	0.914965035
2607.61219	0.915060073
2605.68348	0.914899554
2603.75478	0.914994426
2601.82607	0.915367483
2599.89736	0.915461624
2597.96865	0.915809947
2596.03995	0.91618096
2594.11124	0.916273912
2592.18253	0.916112957
2590.25383	0.916205752
2588.32512	0.916574586
2586.39641	0.916666667
2584.4677	0.916758545
2582.539	0.916873108
2580.61029	0.916964531
2578.68158	0.917330404
2576.75288	0.917421125
2574.82417	0.917511647
2572.89546	0.917875719
2570.96675	0.917714598
2569.03805	0.918077553
2567.10934	0.918166939
2565.18063	0.918256131
2563.25192	0.918345128
2561.32322	0.918705818
2559.39451	0.918794134
2557.4658	0.918882257
2555.5371	0.918992143
2553.60839	0.919079838
2551.67968	0.919167343
2549.75097	0.91952471
2547.82227	0.919363538
2545.89356	0.919450431
2543.96485	0.919537137
2542.03614	0.919892473
2540.10744	0.920247046
2538.17873	0.920600858
2536.25002	0.920685959
2534.32132	0.920524485
2532.39261	0.920609463
2530.4639	0.920448478
2528.53519	0.9208
2526.60649	0.921150773
2524.67778	0.921234699
2522.74907	0.921584264
2520.82037	0.921667552
2518.89166	0.921750663
2516.96295	0.921589404
2515.03424	0.92193702
2513.10554	0.922019561
2511.17683	0.922365989
2509.24812	0.922447903
2507.31941	0.922793149
2505.39071	0.922874441
2503.462	0.922712934
2501.53329	0.923056723
2499.60459	0.92339979
2497.67588	0.923238145
2495.74717	0.923580215
2493.81846	0.923921569
2491.88976	0.924001045
2489.96105	0.923839332
2488.03234	0.92417926
2486.10363	0.924258199
2484.17493	0.924596984
2482.24622	0.924435212
2480.31751	0.924773022
2478.38881	0.924850998
2476.4601	0.925187678
2474.53139	0.925284385
2472.60268	0.92536157
2470.67398	0.925199897
2468.74527	0.925534656
2466.81656	0.925611326
2464.88786	0.925944973
2462.95915	0.926021063
2461.03044	0.926115957
2459.10173	0.926447975
2457.17303	0.926286153
2455.24432	0.926361544
2453.31561	0.926692209
2451.3869	0.9270222
2449.4582	0.926860347
2447.52949	0.927189409
2445.60078	0.927263479
2443.67208	0.927355855
2441.74337	0.927683329
2439.81466	0.927521541
2437.88595	0.927848101
2435.95725	0.927921093
2434.02854	0.928246589
2432.09983	0.928084784
2430.17112	0.928409377
2428.24242	0.928247734
2426.31371	0.928571429
2424.385	0.928894472
2422.4563	0.928983689
2420.52759	0.929054901
2418.59888	0.929143716
2416.67017	0.929464732
2414.74147	0.929785107
2412.81276	0.929623159
2410.88405	0.929693343
2408.95535	0.930012453
2407.02664	0.930330928
2405.09793	0.930168986
2403.16922	0.930486594
2401.24052	0.930572775
2399.31181	0.930641566
2397.3831	0.930957684
2395.45439	0.930795848
2393.52569	0.931111111
2391.59698	0.931179082
2389.66827	0.931493346
2387.73957	0.931331528
2385.81086	0.931644947
2383.88215	0.93172888
2381.95344	0.932041217
2380.02474	0.932107843
2378.09603	0.932190942
2376.16732	0.932257276
2374.23861	0.932567799
2372.30991	0.932633634
2370.3812	0.932699342
2368.45249	0.932764921
2366.52379	0.933073741
2364.59508	0.932912008
2362.66637	0.93322001
2360.73766	0.933300994
2358.80896	0.933139535
2356.88025	0.933446273
2354.95154	0.93352671
2353.02284	0.933848382
2351.09413	0.934153401
2349.16542	0.934473621
2347.23671	0.934536703
2345.30801	0.934375
2343.3793	0.934662503
2341.45059	0.934725222
2339.52188	0.935027571
2337.59318	0.9348659
2335.66447	0.934943793
2333.73576	0.9350215
2331.80706	0.935322196
2329.87835	0.935637664
2327.94964	0.935937128
2326.02093	0.936013321
2324.09223	0.936089332
2322.16352	0.936165164
2320.23481	0.936462779
2318.3061	0.936538006
2316.3774	0.936376537
2314.44869	0.936687928
2312.51998	0.936983715
2310.59128	0.937057992
2308.66257	0.937117287
2306.73386	0.937191249
2304.80515	0.937485311
2302.87645	0.937323944
2300.94774	0.937617261
2299.01903	0.937690326
2297.09033	0.937982682
2295.16162	0.938055166
2293.23291	0.938113031
2291.3042	0.938404106
2289.3755	0.938461538
2287.44679	0.938751747
2285.51808	0.939041415
2283.58937	0.939112247
2281.66067	0.938950789
2279.73196	0.939007421
2277.80325	0.939295644
2275.87455	0.93913446
2273.94584	0.939421965
2272.01713	0.93970894
2270.08842	0.939547762
2268.15972	0.939834025
2266.23101	0.939889452
2264.3023	0.939958592
2262.37359	0.940243622
2260.44489	0.940082645
2258.51618	0.940366972
2256.58747	0.940435281
2254.65877	0.940503432
2252.73006	0.940571429
2250.80135	0.940854076
2248.87264	0.940921533
2246.94394	0.940988836
2245.01523	0.941055985
2243.08652	0.941350307
2241.15782	0.941416894
2239.22911	0.941710138
2237.3004	0.941562854
2235.37169	0.941855204
2233.44299	0.941920904
2231.51428	0.941999549
2229.58557	0.942064923
2227.65686	0.942130151
2225.72816	0.942420153
2223.79945	0.942484835
2221.87074	0.942773788
2219.94204	0.942837929
2218.01333	0.942901926
2216.08462	0.942965779
2214.15591	0.943042216
2212.22721	0.943105756
2210.2985	0.943169155
2208.36979	0.943455031
2206.44108	0.943517901
2204.51238	0.943790269
2202.58367	0.943852641
2200.65496	0.943902439
2198.72626	0.943964563
2196.79755	0.944026549
2194.86884	0.944297082
2192.94013	0.944358578
2191.01143	0.944419938
2189.08272	0.944481163
2187.15401	0.944750165
2185.22531	0.945018694
2183.2966	0.945079086
2181.36789	0.945127305
2179.43918	0.945406709
2177.51048	0.945673604
2175.58177	0.945514223
2173.65306	0.94557377
2171.72435	0.945633188
2169.79565	0.945898778
2167.86694	0.946163906
2165.93823	0.946222513
2164.00953	0.946486839
2162.08082	0.94654498
2160.15211	0.946602995
2158.2234	0.94686619
2156.2947	0.947128927
2154.36599	0.947174713
2152.43728	0.947231834
2150.50857	0.947698293
2148.57987	0.94772089
2146.65116	0.94792567
2144.72245	0.947936919
2142.79375	0.948004315
2140.86504	0.948331539
2138.93633	0.948431457
2137.00762	0.948701438
2135.07892	0.948756432
2133.15021	0.949014567
2131.2215	0.94906912
2129.2928	0.94913443
2127.36409	0.949188728
2125.43538	0.949242909
2123.50667	0.949499254
2121.57797	0.949553001
2119.64926	0.949606634
2117.72055	0.950074357
2115.79184	0.950127334
2113.86314	0.950180199
2111.93443	0.950444727
2110.00572	0.950497144
2108.07702	0.950559899
2106.14831	0.950612073
2104.2196	0.950664137
2102.29089	0.950926706
2100.36219	0.951188723
2098.43348	0.951240017
2096.50477	0.951501155
2094.57606	0.951761745
2092.64736	0.951812277
2090.71865	0.951862704
2088.78994	0.951923077
2086.86124	0.951973272
2084.93253	0.952033368
2083.00382	0.9525
2081.07511	0.952559301
2079.14641	0.952608605
2077.2177	0.952865449
2075.28899	0.952924098
2073.36029	0.953180029
2071.43158	0.953228477
2069.50287	0.953473945
2067.57416	0.95350279
2065.64546	0.953550784
2063.71675	0.953617811
2061.78804	0.953684644
2059.85933	0.953947368
2057.93063	0.954004107
2056.00192	0.954461538
2054.07321	0.954517517
2052.14451	0.954768727
2050.2158	0.955019423
2048.28709	0.955269608
2046.35838	0.955315242
2044.42968	0.955360783
2042.50097	0.955406231
2040.57226	0.955451587
2038.64355	0.955709061
2036.71485	0.955956972
2034.78614	0.955807825
2032.85743	0.956037277
2030.92873	0.956055083
2029.00002	0.956284153
2027.07131	0.956345998
2025.1426	0.956416465
2023.2139	0.956469166
2021.28519	0.956512986
2019.35648	0.956749145
2017.42778	0.956792605
2015.49907	0.95703674
2013.57036	0.957480947
2011.64165	0.957523542
2009.71295	0.957566053
2007.78424	0.957608478
2005.85553	0.957650819
2003.92682	0.957693075
2001.99812	0.958125623
2000.06941	0.958167331
1998.1407	0.958208955
1996.212	0.958242195
1994.28329	0.958076694
1992.35458	0.958300238
1990.42587	0.958341599
1988.49717	0.958391123
1986.56846	0.958630245
1984.63975	0.959058544
1982.71104	0.959288538
1980.78234	0.959131293
1978.85363	0.959360821
1976.92492	0.959400867
1974.99622	0.959629776
1973.06751	0.959669487
1971.1388	0.959701199
1969.21009	0.959732862
1967.28139	0.959764475
1965.35268	0.96
1963.42397	0.960211682
1961.49527	0.960368844
1959.56656	0.960510806
1957.63785	0.960761232
1955.70914	0.96089167
1953.78044	0.961170732
1951.85173	0.961216137
1949.92302	0.96105919
1947.99431	0.961097063
1946.06561	0.960940536
1944.1369	0.960963294
1942.20819	0.961187658
1940.27949	0.961627907
1938.35078	0.961873428
1936.42207	0.961910286
1934.49336	0.962140236
1932.56466	0.962176766
1930.63595	0.962213225
1928.70724	0.962434984
1926.77853	0.962463908
1924.84983	0.962485571
1922.92112	0.962322184
1920.99241	0.9623439
1919.06371	0.962365591
1917.135	0.962593516
1915.20629	0.963033902
1913.27758	0.963083397
1911.34888	0.963295737
1909.42017	0.963323782
1907.49146	0.963549618
1905.56276	0.963591308
1903.63405	0.963625976
1901.70534	0.964034253
1899.77663	0.964061609
1897.84793	0.964088923
1895.91922	0.964299278
1893.99051	0.964326376
1892.0618	0.964163823
1890.1331	0.964184196
1888.20439	0.964407421
1886.27568	0.964636914
1884.34698	0.964676993
1882.41827	0.964892412
1880.48956	0.965107507
1878.56085	0.965322277
1876.63215	0.965536723
1874.70344	0.965562665
1872.77473	0.965394019
1870.84602	0.964829791
1868.91732	0.964836405
1866.98861	0.965070423
1865.0599	0.965504312
1863.1312	0.965917603
1861.20249	0.965949486
1859.27378	0.966161899
1857.34507	0.966380276
1855.41637	0.966411644
1853.48766	0.966442953
1851.55895	0.966467958
1849.63025	0.966480447
1847.70154	0.966294227
1845.77283	0.96609538
1843.84412	0.965934475
1841.91542	0.966555184
1839.98671	0.966988131
1838.058	0.96683957
1836.12929	0.967049241
1834.20059	0.967437558
1832.27188	0.967252544
1830.34317	0.96706753
1828.41447	0.967097967
1826.48576	0.967128347
1824.55705	0.967349198
1822.62834	0.967943994
1820.69964	0.968347442
1818.77093	0.968370725
1816.84222	0.968388164
1814.91351	0.968589273
1812.98481	0.968411387
1811.0561	0.968600808
1809.12739	0.968623853
1807.19869	0.96883593
1805.26998	0.968847352
1803.34127	0.968658358
1801.41256	0.968469294
1799.48386	0.969024927
1797.55515	0.969225133
1795.62644	0.969402712
1793.69774	0.96919692
1791.76903	0.969558041
1789.84032	0.969774684
1787.91161	0.969979865
1785.98291	0.969974368
1784.0542	0.96996887
1782.12549	0.970151987
1780.19678	0.970157451
1778.26808	0.970706701
1776.33937	0.970695971
1774.41066	0.970841738
1772.48196	0.970631424
1770.55325	0.970820334
1768.62454	0.970852429
1766.69583	0.971611722
1764.76713	0.971988283
1762.83842	0.971972889
1760.90971	0.972140762
1758.981	0.972135655
1757.0523	0.972298661
1755.12359	0.972451791
1753.19488	0.972206884
1751.26618	0.971766008
1749.33747	0.971539457
1747.40876	0.972078402
1745.48005	0.97260781
1743.55135	0.972942921
1741.62264	0.973273942
1739.69393	0.973620658
1737.76523	0.973596132
1735.83652	0.973360656
1733.90781	0.97334079
1731.9791	0.973576479
1730.0504	0.973835591
1728.12169	0.974444444
1726.19298	0.97485672
1724.26427	0.975073855
1722.33557	0.974732571
1720.40686	0.974363703
1718.47815	0.973805571
1716.54945	0.973839352
1714.62074	0.974104683
1712.69203	0.974551446
1710.76332	0.974789916
1708.83462	0.974639664
1706.90591	0.974293528
1704.9772	0.97431694
1703.04849	0.973957385
1701.11979	0.973765713
1699.19108	0.973803893
1697.26237	0.974233351
1695.33367	0.974841629
1693.40496	0.975275221
1691.47625	0.975324207
1689.54754	0.975157516
1687.61884	0.975148568
1685.69013	0.974936891
1683.76142	0.974756581
1681.83272	0.975341973
1679.90401	0.975570325
1677.9753	0.97575431
1676.04659	0.975565936
1674.11789	0.975570325
1672.18918	0.975219968
1670.26047	0.975215517
1668.33176	0.975601005
1666.40306	0.976356797
1664.47435	0.976540115
1662.54564	0.976540115
1660.61694	0.976914817
1658.68823	0.977101968
1656.75952	0.976527504
1654.83081	0.975728155
1652.90211	0.975521958
1650.9734	0.976109215
1649.04469	0.976318622
1647.11598	0.976493809
1645.18728	0.97688172
1643.25857	0.977280859
1641.32986	0.977475867
1639.40116	0.976927204
1637.47245	0.976531709
1635.54374	0.976523297
1633.61503	0.977276794
1631.68633	0.977674585
1629.75762	0.977857143
1627.82891	0.977849232
1625.90021	0.978020014
1623.9715	0.977837355
1622.04279	0.978023941
1620.11408	0.978388998
1618.18538	0.978559943
1616.25667	0.978742408
1614.32796	0.979304193
1612.39925	0.979504545
1610.47055	0.979504545
1608.54184	0.979504545
1606.61313	0.979690005
1604.68443	0.979875334
1602.75572	0.980060531
1600.82701	0.980423563
1598.8983	0.980434009
1596.9696	0.980618777
1595.04089	0.980451395
1593.11218	0.980820458
1591.18347	0.980840873
1589.25477	0.981038455
1587.32606	0.981232295
1585.39735	0.981425792
1583.46865	0.981618947
1581.53994	0.981631932
1579.61123	0.981635176
1577.68252	0.98145204
1575.75382	0.981288614
1573.82511	0.981670779
1571.8964	0.981334742
1569.96769	0.981510829
1568.03899	0.981533591
1566.11028	0.98173516
1564.18157	0.981920309
1562.25287	0.981549815
1560.32416	0.981148696
1558.39545	0.980789566
1556.46674	0.981543329
1554.53804	0.982299334
1552.60933	0.982502187
1550.68062	0.982342657
1548.75192	0.982695333
1546.82321	0.982514426
1544.8945	0.982311734
1542.96579	0.981929825
1541.03709	0.981920309
1539.10838	0.982477659
1537.17967	0.982704403
1535.25096	0.983074507
1533.32226	0.983083362
1531.39355	0.983275261
1529.46484	0.983461003
1527.53614	0.98345236
1525.60743	0.983440823
1523.67872	0.983246073
1521.75001	0.983050847
1519.82131	0.983059728
1517.8926	0.983426378
1515.96389	0.983963744
1514.03518	0.984320557
1512.10648	0.984315092
1510.17777	0.983772466
1508.24906	0.983400315
1506.32036	0.984284966
1504.39165	0.985376045
1502.46294	0.985753996
1500.53423	0.985749044
1498.60553	0.985734168
1496.67682	0.986079694
1494.74811	0.986439499
1492.81941	0.986265647
1490.8907	0.986074848
1488.96199	0.986069998
1487.03328	0.986606366
1485.10458	0.987317582
1483.17587	0.987495658
1481.24716	0.987493486
1479.31845	0.987308762
1477.38975	0.986940623
1475.46104	0.987085515
1473.53233	0.987410386
1471.60363	0.987928621
1469.67492	0.988455484
1467.74621	0.98862244
1465.8175	0.988608482
1463.8888	0.988779804
1461.96009	0.98860249
1460.03138	0.988053408
1458.10267	0.987495597
1456.17397	0.987673886
1454.24526	0.98858247
1452.31655	0.989130435
1450.38785	0.989484753
1448.45914	0.989486595
1446.53043	0.98966906
1444.60172	0.990202939
1442.67302	0.99020979
1440.74431	0.990381252
1438.8156	0.98966725
1436.8869	0.989303875
1434.95819	0.989661819
1433.02948	0.990372834
1431.10077	0.990547873
1429.17207	0.990722913
1427.24336	0.990897952
1425.31465	0.99089317
1423.38594	0.99088359
1421.45724	0.990516333
1419.52853	0.990147783
1417.59982	0.990322013
1415.67112	0.991032179
1413.74241	0.991734084
1411.8137	0.991904259
1409.88499	0.992073278
1407.95629	0.992242595
1406.02758	0.992059291
1404.09887	0.992230267
1402.17016	0.992578194
1400.24146	0.992571631
1398.31275	0.992390727
1396.38404	0.992213767
1394.45534	0.992572944
1392.52663	0.993111975
1390.59792	0.993468667
1388.66921	0.993288591
1386.74051	0.993287405
1384.8118	0.993820621
1382.88309	0.994529734
1380.95439	0.994708061
1379.02568	0.994708995
1377.09697	0.994531663
1375.16826	0.994529734
1373.23956	0.994707128
1371.31085	0.995061728
1369.38214	0.995239774
1367.45343	0.995416887
1365.52473	0.995239774
1363.59602	0.995062599
1361.66731	0.99506521
1359.73861	0.995597817
1357.8099	0.995954266
1355.88119	0.996132208
1353.95248	0.996309315
1352.02378	0.996486914
1350.09507	0.996313849
1348.16636	0.996491228
1346.23765	0.99666842
1344.30895	0.996494918
1342.38024	0.996145085
1340.45153	0.995794638
1338.52283	0.995796111
1336.59412	0.996324816
1334.66541	0.996678322
1332.7367	0.997030568
1330.808	0.997032123
1328.87929	0.997033676
1326.95058	0.997034711
1325.02188	0.99720914
1323.09317	0.99720914
1321.16446	0.997034194
1319.23575	0.997207679
1317.30705	0.997207191
1315.37834	0.997380828
1313.44963	0.997554585
1311.52092	0.997554158
1309.59222	0.997728464
1307.66351	0.997728067
1305.7348	0.997901731
1303.8061	0.998075577
1301.87739	0.997899527
1299.94868	0.998073218
1298.01997	0.998247152
1296.09127	0.99842133
1294.16256	0.998420221
1292.23385	0.998418833
1290.30514	0.998417165
1288.37644	0.998415772
1286.44773	0.998590308
1284.51902	0.998765214
1282.59032	0.998763688
1280.66161	0.998938804
1278.7329	0.998937301
1276.80419	0.998935415
1274.87549	0.998933333
1272.94678	0.998930862
1271.01807	0.998748883
1269.08937	0.998923381
1267.16066	0.998738057
1265.23195	0.998913043
1263.30324	0.998908893
1261.37454	0.998725187
1259.44583	0.998908098
1257.51712	0.998910675
1255.58841	0.998732343
1253.65971	0.998734635
1251.731	0.998735549
1249.80229	0.998554913
1247.87359	0.998553868
1245.94488	0.998371336
1244.01617	0.99836927
1242.08746	0.998185776
1240.15876	0.997820559
1238.23005	0.997635504
1236.30134	0.997449909
1234.37263	0.997445722
1232.44393	0.997076558
1230.51522	0.997071742
1228.58651	0.996883593
1226.65781	0.996694822
1224.7291	0.996505426
1222.80039	0.996131172
1220.87168	0.995939461
1218.94298	0.995747041
1217.01427	0.994999074
1215.08556	0.994803267
1213.15686	0.994421718
1211.22815	0.994222885
1209.29944	0.993837535
1207.37073	0.993449373
1205.44203	0.993059464
1203.51332	0.992667795
1201.58461	0.992274355
1199.6559	0.991879131
1197.7272	0.991292826
1195.79849	0.990893569
1193.86978	0.990492489
1191.94108	0.98989899
1190.01237	0.989304813
1188.08366	0.98870381
1186.15495	0.988289499
1184.22625	0.98767809
1182.29754	0.987058142
1180.36883	0.986439365
1178.44012	0.985830745
1176.51142	0.985222633
1174.58271	0.984612388
1172.654	0.983993754
1170.7253	0.983369204
1168.79659	0.982545597
1166.86788	0.98171451
1164.93917	0.981076286
1163.01047	0.980241059
1161.08176	0.97959588
1159.15305	0.978752979
1157.22435	0.977702568
1155.29564	0.977041326
1153.36693	0.976171406
1151.43822	0.975497088
1149.50952	0.97461213
1147.58081	0.973716134
1145.6521	0.972408196
1143.72339	0.970893548
1141.79469	0.969573208
1139.86598	0.967854218
1137.93727	0.9665229
1136.00857	0.964977338
1134.07986	0.96361381
1132.15115	0.961825726
1130.22244	0.960224906
1128.29374	0.958385613
1126.36503	0.956530869
1124.43632	0.954852321
1122.50761	0.952946164
1120.57891	0.951224707
1118.6502	0.949475487
1116.72149	0.947493006
1114.79279	0.945478148
1112.86408	0.943223842
1110.93537	0.941575492
1109.00666	0.939467312
1107.07796	0.937527692
1105.14925	0.935368843
1103.22054	0.933183857
1101.29184	0.931228861
1099.36313	0.929299796
1097.43442	0.927189989
1095.50571	0.924885845
1093.57701	0.922601328
1091.6483	0.920762517
1089.71959	0.91845197
1087.79088	0.916339265
1085.86218	0.914385151
1083.93347	0.912395154
1082.00476	0.910367423
1080.07606	0.908108108
1078.14735	0.905851817
1076.21864	0.903600189
1074.28993	0.901378327
1072.36123	0.898975459
1070.43252	0.896584667
1068.50381	0.894182428
1066.5751	0.891742679
1064.6464	0.889530686
1062.71769	0.887279749
1060.78898	0.884801549
1058.86028	0.882367208
1056.93157	0.879796017
1055.00286	0.87724842
1053.07415	0.874513619
1051.14545	0.871776156
1049.21674	0.869004139
1047.28803	0.866471735
1045.35933	0.863691782
1043.43062	0.860663738
1041.50191	0.857875458
1039.5732	0.855292105
1037.6445	0.852739726
1035.71579	0.850146915
1033.78708	0.8470963
1031.85837	0.844041197
1029.92967	0.840981595
1028.00096	0.837997054
1026.07225	0.834601227
1024.14355	0.83104463
1022.21484	0.827535522
1020.28613	0.824033284
1018.35742	0.820293399
1016.42872	0.816361416
1014.50001	0.812240917
1012.5713	0.808179163
1010.64259	0.804178814
1008.71389	0.8
1006.78518	0.795789983
1004.85647	0.791928468
1002.92777	0.78754225
1000.99906	0.783059846
999.07035	0.778769602
997.14164	0.774185766
995.21294	0.769546332
993.28423	0.765032601
991.35552	0.760454436
989.42682	0.756050339
987.49811	0.751515152
985.5694	0.746841594
983.64069	0.74226553
981.71199	0.737781036
979.78328	0.733137111
977.85457	0.728750924
975.92586	0.724078198
973.99716	0.7198608
972.06845	0.715497879
970.13974	0.710816224
968.21104	0.70642893
966.28233	0.701661631
964.35362	0.696870268
962.42491	0.692054656
960.49621	0.687135245
958.5675	0.682442748
956.63879	0.677814654
954.71008	0.673071996
952.78138	0.668381785
950.85267	0.663049096
948.92396	0.658010906
946.99526	0.653173152
945.06655	0.648264984
943.13784	0.643632513
941.20913	0.638740662
939.28043	0.633844498
937.35172	0.628935939
935.42301	0.624280625
933.49431	0.619535141
931.5656	0.61497625
929.63689	0.609811108
927.70818	0.60523322
925.77948	0.600229424
923.85077	0.595547846
921.92206	0.591081317
919.99335	0.586419753
918.06465	0.581850534
916.13594	0.577199282
914.20723	0.572809668
912.27853	0.568202624
910.34982	0.563541024
908.42111	0.559438378
906.4924	0.555274795
904.5637	0.551007355
902.63499	0.546278317
900.70628	0.542389525
898.77757	0.538029101
896.84887	0.533889816
894.92016	0.529669589
892.99145	0.526064736
891.06275	0.52238292
889.13404	0.51862165
887.20533	0.514959521
885.27662	0.510676157
883.34792	0.507016913
881.41921	0.503822352
879.4905	0.500184026
877.5618	0.497395833
875.63309	0.493989482
873.70438	0.491281274
871.77567	0.487963317
869.84697	0.485175202
867.91826	0.481768813
865.98955	0.479093396
864.06084	0.476377953
862.13214	0.474414915
860.20343	0.471833799
858.27472	0.469215292
856.34602	0.467179903
854.41731	0.465116279
852.4886	0.463023829
850.55989	0.46093427
848.63119	0.459459459
846.70248	0.45777592
844.77377	0.45626577
842.84506	0.455198648
840.91636	0.453695837
838.98765	0.452370782
837.05894	0.451696007
835.13024	0.451014243
833.20153	0.450563747
831.27282	0.450348432
829.34411	0.449934412
827.41541	0.449472759
825.4867	0.449889625
823.55799	0.450510431
821.62929	0.450490633
819.70058	0.450716846
817.77187	0.451192083
815.84316	0.452779033
813.91446	0.453926464
811.98575	0.455748175
810.05704	0.457588262
808.12833	0.459447005
806.19963	0.461574074
804.27092	0.464219331
802.34221	0.467132867
800.41351	0.470340962
798.4848	0.474053296
796.55609	0.477793361
794.62738	0.481775701
792.69868	0.486461251
790.76997	0.49113806
788.84126	0.496040987
786.91255	0.501862197
784.98385	0.508372093
783.05514	0.515109252
781.12643	0.521617852
779.19773	0.528810409
777.26902	0.536211699
775.34031	0.544315545
773.4116	0.552826691
771.4829	0.560592044
769.55419	0.569515012
767.62548	0.578874539
765.69678	0.588479263
763.76807	0.598066298
761.83936	0.607635695
759.91065	0.61775529
757.98195	0.626954922
756.05324	0.636907501
754.12453	0.646706587
752.19582	0.656668205
750.26712	0.666358595
748.33841	0.675925926
746.4097	0.685382831
744.481	0.69474174
742.55229	0.703686421
740.62358	0.712681329
738.69487	0.721257626
736.76617	0.729755179
734.83746	0.737364195
732.90875	0.745376956
730.98004	0.752974774
729.05134	0.759675108
727.12263	0.766794626
725.19392	0.773757839
723.26522	0.779932138
721.33651	0.786166585
719.4078	0.791870715
717.47909	0.797636632
715.55039	0.802970297
713.62168	0.807366849
711.69297	0.811717576
709.76427	0.816028226
707.83556	0.820395738
705.90685	0.824821246
703.97814	0.828277635
702.04944	0.831780538
700.12073	0.834375
698.19202	0.836916623
696.26331	0.839408347
694.33461	0.841405003
692.4059	0.842895442
690.47719	0.845405405
688.54849	0.846866485
686.61978	0.849367784
684.69107	0.851193781
682.76236	0.852578475
680.83366	0.854072398
678.90495	0.854452055
676.97624	0.855414747
675.04753	0.856893543
673.11883	0.85840188
671.19012	0.859940653
669.26141	0.860911271
667.33271	0.861901878
665.404	0.862996942
663.47529	0.863411619
661.54658	0.864459713
659.61788	0.864353312
657.68917	0.865433673
655.76046	0.866537718
653.83176	0.867752443
651.90305	0.868334431
649.97434	0.868841545
648.04563	0.870707071
646.11693	0.872702519
644.18822	0.87293956
642.25951	0.873873874
640.3308	0.874125874
638.4021	0.875
636.47339	0.876516774
634.54468	0.877433309
632.61598	0.878920496
630.68727	0.879704797
628.75856	0.880329095
626.82985	0.881728582
624.90115	0.88172043
622.97244	0.881712062
621.04373	0.881008668
619.11502	0.88188348
617.18632	0.884397736
615.25761	0.885527392
613.3289	0.886963696
611.4002	0.886949293
609.47149	0.887772194
607.54278	0.889358108
605.61407	0.89011925
603.68537	0.890128755
601.75666	0.891681109
