4999.20917	0.278037383
4997.28046	0.276744186
4995.35176	0.278422274
4993.42305	0.277777778
4991.49434	0.277136259
4989.56564	0.278801843
4987.63693	0.27816092
4985.70822	0.277522936
4983.77951	0.279176201
4981.85081	0.278538813
4979.9221	0.277904328
4977.99339	0.277272727
4976.06468	0.278911565
4974.13598	0.278911565
4972.20727	0.278280543
4970.27856	0.277027027
4968.34986	0.278651685
4966.42115	0.278026906
4964.49244	0.277404922
4962.56373	0.276785714
4960.63503	0.276169265
4958.70632	0.275555556
4956.77761	0.274944568
4954.8489	0.276548673
4952.9202	0.27593819
4950.99149	0.27753304
4949.06278	0.276923077
4947.13408	0.278508772
4945.20537	0.277899344
4943.27666	0.277292576
4941.34795	0.276688453
4939.41925	0.276086957
4937.49054	0.277657267
4935.56183	0.277056277
4933.63313	0.276457883
4931.70442	0.278017241
4929.77571	0.277419355
4927.847	0.276824034
4925.9183	0.276231263
4923.98959	0.275053305
4922.06088	0.276595745
4920.13217	0.276595745
4918.20347	0.275423729
4916.27476	0.274841438
4914.34605	0.274261603
4912.41735	0.275789474
4910.48864	0.275210084
4908.55993	0.274633124
4906.63122	0.276150628
4904.70252	0.275
4902.77381	0.274428274
4900.8451	0.273858921
4898.91639	0.275362319
4896.98769	0.275362319
4895.05898	0.274793388
4893.13027	0.27628866
4891.20157	0.275154004
4889.27286	0.274590164
4887.34415	0.27607362
4885.41544	0.275510204
4883.48674	0.274949084
4881.55803	0.276422764
4879.62932	0.275862069
4877.70062	0.275303644
4875.77191	0.274747475
4873.8432	0.276209677
4871.91449	0.275100402
4869.98579	0.274549098
4868.05708	0.274
4866.12837	0.272908367
4864.19966	0.274353877
4862.27096	0.273809524
4860.34225	0.273267327
4858.41354	0.272727273
4856.48484	0.273622047
4854.55613	0.273622047
4852.62742	0.273084479
4850.69871	0.272015656
4848.77001	0.271484375
4846.8413	0.272904483
4844.91259	0.272373541
4842.98388	0.273786408
4841.05518	0.273255814
4839.12647	0.272200772
4837.19776	0.273603083
4835.26906	0.273076923
4833.34035	0.272552783
4831.41164	0.272030651
4829.48293	0.271510516
4827.55423	0.272380952
4825.62552	0.271863118
4823.69681	0.271347249
4821.76811	0.272727273
4819.8394	0.27221172
4817.91069	0.271698113
4815.98198	0.271186441
4814.05328	0.272045028
4812.12457	0.271535581
4810.19586	0.271028037
4808.26715	0.270018622
4806.33845	0.271375465
4804.40974	0.270871985
4802.48103	0.272222222
4800.55233	0.271719039
4798.62362	0.271217712
4796.69491	0.270220588
4794.7662	0.269724771
4792.8375	0.271062271
4790.90879	0.270566728
4788.98008	0.270072993
4787.05137	0.270909091
4785.12267	0.270417423
4783.19396	0.269927536
4781.26525	0.27124774
4779.33655	0.27027027
4777.40784	0.269784173
4775.47913	0.271095153
4773.55042	0.270125224
4771.62172	0.269642857
4769.69301	0.270944742
4767.7643	0.270462633
4765.8356	0.269503546
4763.90689	0.27079646
4761.97818	0.270318021
4760.04947	0.26984127
4758.12077	0.270650264
4756.19206	0.270175439
4754.26335	0.269702277
4752.33464	0.268760908
4750.40594	0.270034843
4748.47723	0.269565217
4746.54852	0.268630849
4744.61982	0.26816609
4742.69111	0.269430052
4740.7624	0.268965517
4738.83369	0.268041237
4736.90499	0.268835616
4734.97628	0.268376068
4733.04757	0.267918089
4731.11886	0.26746167
4729.19016	0.26655348
4727.26145	0.26779661
4725.33274	0.267343486
4723.40404	0.268581081
4721.47533	0.268128162
4719.54662	0.267226891
4717.61791	0.266778523
4715.68921	0.2680067
4713.7605	0.267558528
4711.83179	0.266666667
4709.90308	0.266222962
4707.97438	0.266998342
4706.04567	0.266556291
4704.11696	0.267326733
4702.18826	0.266886326
4700.25955	0.266447368
4698.33084	0.266009852
4696.40213	0.266775777
4694.47343	0.265905383
4692.54472	0.267100977
4690.61601	0.266666667
4688.68731	0.265802269
4686.7586	0.265372168
4684.82989	0.264943457
4682.90118	0.265700483
4680.97248	0.265273312
4679.04377	0.266025641
4677.11506	0.2656
4675.18635	0.265175719
4673.25765	0.265923567
4671.32894	0.265500795
4669.40023	0.266244057
4667.47153	0.265822785
4665.54282	0.265402844
4663.61411	0.264984227
4661.6854	0.264150943
4659.7567	0.264890282
4657.82799	0.264475743
4655.89928	0.265625
4653.97057	0.265210608
4652.04187	0.264385692
4650.11316	0.265116279
4648.18445	0.264705882
4646.25575	0.264296754
4644.32704	0.26348228
4642.39833	0.264615385
4640.46962	0.263803681
4638.54092	0.264931087
4636.61221	0.264122137
4634.6835	0.263719512
4632.7548	0.264840183
4630.82609	0.264036419
4628.89738	0.265151515
4626.96867	0.264750378
4625.03997	0.263951735
4623.11126	0.263554217
4621.18255	0.262762763
4619.25384	0.261976048
4617.32514	0.263079223
4615.39643	0.262295082
4613.46772	0.263392857
4611.53902	0.262611276
4609.61031	0.262222222
4607.6816	0.262924668
4605.75289	0.262150221
4603.82419	0.261764706
4601.89548	0.262848752
4599.96677	0.262079063
4598.03806	0.261695906
4596.10936	0.262773723
4594.18065	0.262008734
4592.25194	0.261627907
4590.32324	0.262318841
4588.39453	0.261560694
4586.46582	0.261183261
4584.53711	0.261870504
4582.60841	0.261494253
4580.6797	0.260744986
4578.75099	0.26037196
4576.82229	0.261428571
4574.89358	0.260683761
4572.96487	0.261363636
4571.03616	0.260992908
4569.10746	0.261669024
4567.17875	0.261299435
4565.25004	0.26056338
4563.32133	0.260196906
4561.39263	0.259467041
4559.46392	0.26013986
4557.53521	0.259776536
4555.60651	0.259052925
4553.6778	0.260083449
4551.74909	0.259722222
4549.82038	0.260387812
4547.89168	0.259668508
4545.96297	0.259310345
4544.03426	0.25997249
4542.10555	0.259615385
4540.17685	0.25890411
4538.24814	0.259562842
4536.31943	0.259208731
4534.39073	0.258503401
4532.46202	0.25951087
4530.53331	0.258807588
4528.6046	0.259459459
4526.6759	0.259109312
4524.74719	0.258411844
4522.81848	0.258064516
4520.88978	0.258713137
4518.96107	0.25802139
4517.03236	0.259012016
4515.10365	0.258666667
4513.17495	0.257978723
4511.24624	0.258964143
4509.31753	0.258278146
4507.38882	0.258916777
4505.46012	0.258234519
4503.53141	0.257555848
4501.6027	0.257217848
4499.674	0.256544503
4497.74529	0.25751634
4495.81658	0.25684485
4493.88787	0.256510417
4491.95917	0.257142857
4490.03046	0.256476684
4488.10175	0.257105943
4486.17304	0.258064516
4484.24434	0.257400257
4482.31563	0.257069409
4480.38692	0.256410256
4478.45822	0.256081946
4476.52951	0.255427842
4474.6008	0.256050955
4472.67209	0.256670902
4470.74339	0.256345178
4468.81468	0.255696203
4466.88597	0.256313131
4464.95727	0.255989912
4463.02856	0.255345912
4461.09985	0.255959849
4459.17114	0.255319149
4457.24244	0.25625
4455.31373	0.255610973
4453.38502	0.254975124
4451.45631	0.254658385
4449.52761	0.255266419
4447.5989	0.254635352
4445.67019	0.254320988
4443.74149	0.254926108
4441.81278	0.254299754
4439.88407	0.255214724
4437.95536	0.254589963
4436.02666	0.253968254
4434.09795	0.254878049
4432.16924	0.254257908
4430.24053	0.253640777
4428.31183	0.254237288
4426.38312	0.253929867
4424.45441	0.254523522
4422.52571	0.253910951
4420.597	0.254501801
4418.66829	0.253892216
4416.73958	0.253588517
4414.81088	0.252983294
4412.88217	0.253571429
4410.95346	0.252969121
4409.02476	0.253855279
4407.09605	0.253254438
4405.16734	0.252656434
4403.23863	0.252061249
4401.30993	0.252643948
4399.38122	0.252051583
4397.45251	0.251461988
4395.5238	0.252336449
4393.5951	0.251748252
4391.66639	0.25145518
4389.73768	0.25203252
4387.80898	0.251448436
4385.88027	0.252314815
4383.95156	0.251732102
4382.02285	0.251152074
4380.09415	0.251724138
4378.16544	0.251146789
4376.23673	0.251716247
4374.30802	0.251141553
4372.37932	0.250855188
4370.45061	0.251422071
4368.5219	0.250851305
4366.5932	0.250283126
4364.66449	0.250847458
4362.73578	0.250281849
4360.80707	0.250843645
4358.87837	0.250280584
4356.94966	0.250839866
4355.02095	0.25027933
4353.09225	0.25
4351.16354	0.250556793
4349.23483	0.25
4347.30612	0.249445676
4345.37742	0.25
4343.44871	0.249448124
4341.52	0.248898678
4339.59129	0.249724972
4337.66259	0.250274424
4335.73388	0.249726177
4333.80517	0.249180328
4331.87647	0.249727372
4329.94776	0.249183896
4328.01905	0.248913043
4326.09034	0.249457701
4324.16164	0.248917749
4322.23293	0.24811219
4320.30422	0.247844828
4318.37551	0.248387097
4316.44681	0.247854077
4314.5181	0.248394004
4312.58939	0.247863248
4310.66069	0.248400853
4308.73198	0.24787234
4306.80327	0.247608927
4304.87456	0.247083775
4302.94586	0.247619048
4301.01715	0.248152059
4299.08844	0.247629083
4297.15974	0.247108307
4295.23103	0.246589717
4293.30232	0.247120419
4291.37361	0.246603971
4289.44491	0.24713243
4287.5162	0.246618106
4285.58749	0.247144341
4283.65878	0.246632124
4281.73008	0.247156153
4279.80137	0.246646027
4277.87266	0.246138002
4275.94396	0.245632066
4274.01525	0.245128205
4272.08654	0.245649949
4270.15783	0.24514811
4268.22913	0.245667686
4266.30042	0.245167854
4264.37171	0.245934959
4262.443	0.245436105
4260.5143	0.245951417
4258.58559	0.245454545
4256.65688	0.245967742
4254.72818	0.245472837
4252.79947	0.24497992
4250.87076	0.244488978
4248.94205	0.244755245
4247.01335	0.245264207
4245.08464	0.244776119
4243.15593	0.24428997
4241.22723	0.243805748
4239.29852	0.244312562
4237.36981	0.243830207
4235.4411	0.244334975
4233.5124	0.243854474
4231.58369	0.243375859
4229.65498	0.242899119
4227.72627	0.24340176
4225.79757	0.243902439
4223.86886	0.243427459
4221.94015	0.243926142
4220.01145	0.243452958
4218.08274	0.242981607
4216.15403	0.243478261
4214.22532	0.243008679
4212.29662	0.242307692
4210.36791	0.24184261
4208.4392	0.242337165
4206.51049	0.242829828
4204.58179	0.242366412
4202.65308	0.242857143
4200.72437	0.242395437
4198.79567	0.241935484
4196.86696	0.241477273
4194.93825	0.241737488
4193.00954	0.242224317
4191.08084	0.241768579
4189.15213	0.241314554
4187.22342	0.240862231
4185.29472	0.241347053
4183.36601	0.240896359
4181.4373	0.24137931
4179.50859	0.240930233
4177.57989	0.241187384
4175.65118	0.240740741
4173.72247	0.240295749
4171.79376	0.240774908
4169.86506	0.240110396
4167.93635	0.240587695
4166.00764	0.240366972
4164.07894	0.23992674
4162.15023	0.240182648
4160.22152	0.239744758
4158.29281	0.239308462
4156.36411	0.239782016
4154.4354	0.239347235
4152.50669	0.23960217
4150.57798	0.239169675
4148.64928	0.23963964
4146.72057	0.239208633
4144.79186	0.238565022
4142.86316	0.239033124
4140.93445	0.238605898
4139.00574	0.239072257
4137.07703	0.238646483
4135.14833	0.238222222
4133.21962	0.238475177
4131.29091	0.238053097
4129.36221	0.237632509
4127.4335	0.237004405
4125.50479	0.237467018
4123.57608	0.237928007
4121.64738	0.237510955
4119.71867	0.237095363
4117.78996	0.236681223
4115.86125	0.236933798
4113.93255	0.236521739
4112.00384	0.236979167
4110.07513	0.237435009
4108.14643	0.237024221
4106.21772	0.236410699
4104.28901	0.236660929
4102.3603	0.236254296
4100.4316	0.23670669
4098.50289	0.23630137
4096.57418	0.235897436
4094.64547	0.236348123
4092.71677	0.235945486
4090.78806	0.236193713
4088.85935	0.235793045
4086.93065	0.236040609
4085.00194	0.235641892
4083.07323	0.235244519
4081.14452	0.234650967
4079.21582	0.235096558
4077.28711	0.235343384
4075.3584	0.234949833
4073.4297	0.234557596
4071.50099	0.23480433
4069.57228	0.234413965
4067.64357	0.234024896
4065.71487	0.234465617
4063.78616	0.23407775
4061.85745	0.234516928
4059.92874	0.233937397
4058.00004	0.233552632
4056.07133	0.233798195
4054.14262	0.233415233
4052.21392	0.233660131
4050.28521	0.234094617
4048.3565	0.233713355
4046.42779	0.233143786
4044.49909	0.232765612
4042.57038	0.233009709
4040.64167	0.232633279
4038.71296	0.233064516
4036.78426	0.232502011
4034.85555	0.232128514
4032.92684	0.23255814
4030.99814	0.232
4029.06943	0.231629393
4027.14072	0.232057416
4025.21201	0.23150358
4023.28331	0.231930103
4021.3546	0.232355274
4019.42589	0.231803797
4017.49719	0.232227488
4015.56848	0.231678487
4013.63977	0.231132075
4011.71106	0.230769231
4009.78236	0.23101018
4007.85365	0.230648944
4005.92494	0.230889236
4003.99623	0.230529595
4002.06753	0.230171073
4000.13882	0.230411171
3998.21011	0.230054222
3996.28141	0.230471771
3994.3527	0.23011583
3992.42399	0.230354391
3990.49528	0.229823213
3988.56658	0.230237913
3986.63787	0.229709035
3984.70916	0.230122324
3982.78045	0.229595728
3980.85175	0.229246002
3978.92304	0.229657795
3976.99433	0.229135053
3975.06563	0.229545455
3973.13692	0.229024943
3971.20821	0.229260935
3969.2795	0.228915663
3967.3508	0.228399699
3965.42209	0.228807202
3963.49338	0.228464419
3961.56468	0.227952167
3959.63597	0.228187919
3957.70726	0.227848101
3955.77855	0.227340267
3953.84985	0.227744807
3951.92114	0.227407407
3949.99243	0.227642276
3948.06372	0.227306273
3946.13502	0.227540501
3944.20631	0.227205882
3942.2776	0.227439472
3940.3489	0.226939971
3938.42019	0.227173119
3936.49148	0.226841721
3934.56277	0.226511289
3932.63407	0.226909091
3930.70536	0.226415094
3928.77665	0.225923244
3926.84794	0.226156069
3924.91924	0.225666907
3922.99053	0.226061915
3921.06182	0.22573688
3919.13312	0.225412778
3917.20441	0.225806452
3915.2757	0.225160829
3913.34699	0.225392297
3911.41829	0.225622776
3909.48958	0.225142045
3907.56087	0.224982257
3905.63217	0.224113475
3903.70346	0.224663359
3901.77475	0.224186704
3899.84604	0.224417784
3897.91734	0.224331927
3895.98863	0.224561404
3894.05992	0.224246671
3892.13121	0.22393282
3890.20251	0.223463687
3888.2738	0.223849372
3886.34509	0.223537604
3884.41639	0.223071577
3882.48768	0.223300971
3880.55897	0.22283737
3878.63026	0.222912353
3876.70156	0.223140496
3874.77285	0.222833563
3872.84414	0.222680412
3870.91543	0.222527473
3868.98673	0.22260274
3867.05802	0.222146275
3865.12931	0.221691678
3863.20061	0.221919673
3861.2719	0.221995927
3859.34319	0.222222222
3857.41448	0.221544715
3855.48578	0.22131704
3853.55707	0.221166893
3851.62836	0.221471978
3849.69966	0.221625252
3847.77095	0.221701273
3845.84224	0.221256684
3843.91353	0.220961282
3841.98483	0.220813876
3840.05612	0.220666667
3838.12741	0.220372836
3836.1987	0.220451527
3834.27	0.21986755
3832.34129	0.21994716
3830.41258	0.220171391
3828.48388	0.220249836
3826.55517	0.219960604
3824.62646	0.219672131
3822.69775	0.219528178
3820.76905	0.219240838
3818.84034	0.219464402
3816.91163	0.219687093
3814.98292	0.21976593
3813.05422	0.219559585
3811.12551	0.219133807
3809.1968	0.218992248
3807.2681	0.218709677
3805.33939	0.218427835
3803.41068	0.218790219
3801.48197	0.218508997
3799.55327	0.218589744
3797.62456	0.217891374
3795.69585	0.217973231
3793.76715	0.218054673
3791.83844	0.218274112
3789.90973	0.217859405
3787.98102	0.217446271
3786.05232	0.21780303
3784.12361	0.217391304
3782.1949	0.217117684
3780.26619	0.216708543
3778.33749	0.2169279
3776.40878	0.216385241
3774.48007	0.216604245
3772.55137	0.216334165
3770.62266	0.216064757
3768.69395	0.21579602
3766.76524	0.215880893
3764.83654	0.215479876
3762.90783	0.215698393
3760.97912	0.215432099
3759.05041	0.215650031
3757.12171	0.215252153
3755.193	0.215119852
3753.26429	0.215252153
3751.33559	0.215119852
3749.40688	0.214723926
3747.47817	0.214460784
3745.54946	0.214329455
3743.62076	0.214154973
3741.69205	0.214329083
3739.76334	0.214415506
3737.83464	0.213809812
3735.90593	0.213680387
3733.97722	0.213768116
3732.04851	0.213598075
3730.11981	0.214157169
3728.1911	0.213772455
3726.26239	0.213516746
3724.33368	0.213731343
3722.40498	0.213222156
3720.47627	0.212841855
3718.54756	0.212930012
3716.61886	0.213143872
3714.69015	0.213017751
3712.76144	0.21289178
3710.83273	0.212514758
3708.90403	0.212477928
3706.97532	0.212441315
3705.04661	0.212067955
3703.1179	0.212404915
3701.1892	0.21203271
3699.26049	0.212121212
3697.33178	0.211751018
3695.40308	0.211382114
3693.47437	0.211259431
3691.54566	0.211259431
3689.61695	0.211136891
3687.68825	0.211104685
3685.75954	0.210951009
3683.83083	0.211040828
3681.90213	0.210798392
3679.97342	0.210677382
3678.04471	0.210677382
3676.116	0.21010333
3674.1873	0.209621993
3672.25859	0.209834191
3670.32988	0.210045662
3668.40117	0.209897611
3666.47247	0.209869541
3664.54376	0.209394454
3662.61505	0.20960452
3660.68635	0.209367946
3658.75764	0.208685843
3656.82893	0.208568207
3654.90022	0.208778841
3652.97152	0.208661417
3651.04281	0.208216095
3649.1141	0.208098988
3647.18539	0.208076276
3645.25669	0.208379888
3643.32798	0.208472687
3641.39927	0.208124652
3639.47057	0.207777778
3637.54186	0.20754717
3635.61315	0.207317073
3633.68444	0.207202216
3631.75574	0.206762749
3629.82703	0.206762749
3627.89832	0.206858407
3625.96961	0.206725469
3624.04091	0.206820682
3622.1122	0.206820682
3620.18349	0.206270627
3618.25479	0.206479956
3616.32608	0.206253428
3614.39737	0.205914567
3612.46866	0.205801861
3610.53996	0.205576818
3608.61125	0.205240175
3606.68254	0.205337691
3604.75384	0.205434783
3602.82513	0.20510038
3600.89642	0.204989154
3598.96771	0.204767064
3597.03901	0.20443483
3595.1103	0.204754187
3593.18159	0.204422869
3591.25288	0.204202586
3589.32418	0.204202586
3587.39547	0.203982777
3585.46676	0.204081633
3583.53806	0.203644159
3581.60935	0.203317282
3579.68064	0.202991453
3577.75193	0.203308431
3575.82323	0.203091684
3573.89452	0.203299627
3571.96581	0.203191489
3570.0371	0.202659574
3568.1084	0.202551834
3566.17969	0.202229299
3564.25098	0.202330508
3562.32228	0.20253834
3560.39357	0.202217529
3558.46486	0.202004219
3556.53615	0.20231823
3554.60745	0.202105263
3552.67874	0.201892744
3550.75003	0.201680672
3548.82133	0.201469045
3546.89262	0.201257862
3544.96391	0.200941915
3543.0352	0.200731835
3541.1065	0.200939457
3539.17779	0.200729927
3537.24908	0.200520833
3535.32037	0.200312175
3533.39167	0.200519481
3531.46296	0.200311365
3529.53425	0.200103681
3527.60555	0.2
3525.67684	0.199792961
3523.74813	0.19958635
3521.81942	0.199380165
3519.89072	0.199587416
3517.96201	0.199279094
3516.0333	0.199074074
3514.10459	0.198869476
3512.17589	0.198665298
3510.24718	0.198872373
3508.31847	0.198668715
3506.38977	0.198875256
3504.46106	0.198672114
3502.53235	0.198469388
3500.60364	0.198166072
3498.67494	0.197964377
3496.74623	0.198170732
3494.81752	0.197969543
3492.88882	0.197768763
3490.96011	0.198074975
3489.0314	0.197874494
3487.10269	0.197574533
3485.17399	0.197375063
3483.24528	0.197076613
3481.31657	0.196878147
3479.38786	0.196581197
3477.45916	0.196787149
3475.53045	0.196589769
3473.60174	0.196795193
3471.67304	0.1965
3469.74433	0.196303696
3467.81562	0.196009975
3465.88691	0.196215139
3463.95821	0.195922427
3462.0295	0.195630586
3460.10079	0.195436508
3458.17208	0.195641407
3456.24338	0.195351137
3454.31467	0.195158103
3452.38596	0.195362605
3450.45726	0.195170034
3448.52855	0.19488189
3446.59984	0.194594595
3444.67113	0.194308145
3442.74243	0.194512494
3440.81372	0.194227006
3438.88501	0.193942355
3436.95631	0.194146341
3435.0276	0.19386264
3433.09889	0.193579767
3431.17018	0.19368932
3429.24148	0.193313953
3427.31277	0.193517175
3425.38406	0.193143409
3423.45535	0.193346191
3421.52665	0.193066923
3419.59794	0.192788462
3417.66923	0.192898273
3415.74053	0.19214183
3413.81182	0.191774271
3411.88311	0.191977077
3409.9544	0.191793893
3408.0257	0.191996189
3406.09699	0.191722169
3404.16828	0.19192399
3402.23957	0.191650854
3400.31087	0.191761364
3398.38216	0.191398866
3396.45345	0.191509434
3394.52475	0.191148776
3392.59604	0.191259398
3390.66733	0.190900563
3388.73862	0.191011236
3386.80992	0.190743338
3384.88121	0.190387308
3382.9525	0.190587139
3381.0238	0.190232558
3379.09509	0.189967487
3377.16638	0.190078813
3375.23767	0.189814815
3373.30897	0.189926063
3371.38026	0.189663129
3369.45155	0.18931368
3367.52284	0.189052438
3365.59414	0.188791915
3363.66543	0.188904172
3361.73672	0.189016018
3359.80802	0.188756856
3357.87931	0.188868613
3355.9506	0.188610478
3354.02189	0.188722146
3352.09319	0.188465032
3350.16448	0.1881233
3348.23577	0.188320507
3346.30706	0.188065099
3344.37836	0.187725632
3342.44965	0.187922488
3340.52094	0.187584345
3338.59224	0.187247418
3336.66353	0.187443946
3334.73482	0.187108326
3332.80611	0.187304426
3330.87741	0.186970103
3328.9487	0.187082405
3327.01999	0.18683274
3325.09129	0.186500888
3323.16258	0.186696231
3321.23387	0.186365649
3319.30516	0.186036235
3317.37646	0.186231244
3315.44775	0.186343612
3313.51904	0.186015831
3311.59033	0.186128183
3309.66163	0.185801928
3307.73292	0.185995624
3305.80421	0.185670599
3303.87551	0.185346707
3301.9468	0.185023944
3300.01809	0.185217391
3298.08938	0.184895833
3296.16068	0.185008666
3294.23197	0.185121107
3292.30326	0.184801382
3290.37455	0.184482759
3288.44585	0.184165232
3286.51714	0.184357542
3284.58843	0.183962264
3282.65973	0.184075342
3280.73102	0.183760684
3278.80231	0.18387372
3276.8736	0.183560477
3274.9449	0.183751595
3273.01619	0.18343949
3271.08748	0.183050847
3269.15878	0.183164129
3267.23007	0.18285473
3265.30136	0.18296796
3263.37265	0.182659933
3261.44395	0.182352941
3259.51524	0.182543013
3257.58653	0.182237118
3255.65782	0.182350481
3253.72912	0.182045929
3251.80041	0.182159233
3249.8717	0.181856013
3247.943	0.181553801
3246.01429	0.181667358
3244.08558	0.18136646
3242.15687	0.181066556
3240.22817	0.181180355
3238.29946	0.180881747
3236.37075	0.181069959
3234.44204	0.180772391
3232.51334	0.180811808
3230.58463	0.180515759
3228.65592	0.180629342
3226.72722	0.180334557
3224.79851	0.180040733
3222.8698	0.180154534
3220.94109	0.179861957
3219.01239	0.179570328
3217.08368	0.179684338
3215.15497	0.179393939
3213.22627	0.179507866
3211.29756	0.179218687
3209.36885	0.17926045
3207.44014	0.179373997
3205.51144	0.179086538
3203.58273	0.1788
3201.65402	0.178913738
3199.72531	0.178628389
3197.79661	0.178343949
3195.8679	0.17845787
3193.93919	0.178103927
3192.01049	0.178217822
3190.08178	0.177935943
3188.15307	0.177979479
3186.22436	0.177698976
3184.29566	0.177812746
3182.36695	0.177533386
3180.43824	0.177254902
3178.50953	0.177368833
3176.58083	0.177022274
3174.65212	0.177136169
3172.72341	0.176791277
3170.79471	0.17651633
3168.866	0.176630435
3166.93729	0.176356589
3165.00858	0.176083591
3163.07988	0.17612978
3161.15117	0.175858079
3159.22246	0.175972276
3157.29376	0.175701653
3155.36505	0.175815739
3153.43634	0.175478927
3151.50763	0.175592961
3149.57893	0.175324675
3147.65022	0.175438596
3145.72151	0.175104682
3143.7928	0.174838464
3141.8641	0.174886191
3139.93539	0.174555093
3138.00668	0.174669187
3136.07798	0.174405436
3134.14927	0.174076865
3132.22056	0.174191121
3130.29185	0.173929376
3128.36315	0.174043511
3126.43444	0.173782772
3124.50573	0.173831776
3122.57702	0.173572228
3120.64832	0.173248882
3118.71961	0.173363095
3116.7909	0.173105498
3114.8622	0.172784575
3112.93349	0.172898926
3111.00478	0.172949002
3109.07607	0.172693727
3107.14737	0.172375691
3105.21866	0.172426471
3103.28995	0.172173275
3101.36125	0.171920821
3099.43254	0.172035139
3097.50383	0.171720862
3095.57512	0.171772429
3093.64642	0.171522214
3091.71771	0.171573973
3089.789	0.171324864
3087.86029	0.171376812
3085.93159	0.171128799
3084.00288	0.170819791
3082.07417	0.170934006
3080.14547	0.17062635
3078.21676	0.170319799
3076.28805	0.170434159
3074.35934	0.170189896
3072.43064	0.170243205
3070.50193	0.17
3068.57322	0.169757489
3066.64451	0.169811321
3064.71581	0.169569854
3062.7871	0.169623847
3060.85839	0.169323415
3058.92969	0.169437566
3057.00098	0.169198163
3055.07227	0.168899859
3053.14356	0.169014085
3051.21486	0.169068541
3049.28615	0.168831169
3047.35744	0.168594462
3045.42874	0.16829951
3043.50003	0.168064291
3041.57132	0.168119986
3039.64261	0.167885754
3037.71391	0.168
3035.7852	0.167766586
3033.85649	0.167533819
3031.92778	0.167243767
3029.99908	0.16735823
3028.07037	0.167127072
3026.14166	0.166839021
3024.21296	0.166609294
3022.28425	0.16672396
3020.35554	0.166495022
3018.42683	0.16660953
3016.49813	0.166381376
3014.56942	0.166153846
3012.64071	0.165983607
3010.712	0.165757162
3008.7833	0.165531335
3006.85459	0.16570262
3004.92588	0.165477404
3002.99718	0.165252799
3001.06847	0.165084746
2999.13976	0.164917034
2997.21105	0.165087957
2995.28235	0.164976335
2993.35364	0.164864865
2991.42493	0.164753545
2989.49623	0.164642375
2987.56752	0.164586847
2985.63881	0.164194201
2983.7101	0.164194201
2981.7814	0.16391231
2979.85269	0.163967611
2977.92398	0.163740716
2975.99527	0.16362407
2974.06657	0.163562479
2972.13786	0.163216831
2970.20915	0.162980606
2968.28045	0.163028649
2966.35174	0.162965494
2964.42303	0.163076923
2962.49432	0.162965494
2960.56562	0.162576687
2958.63691	0.1624193
2956.7082	0.162153013
2954.77949	0.16222597
2952.85079	0.161962366
2950.92208	0.162089752
2948.99337	0.161990648
2947.06467	0.161720574
2945.13596	0.161505162
2943.20725	0.161397671
2941.27854	0.161397671
2939.34984	0.161451398
2937.42113	0.161172161
2935.49242	0.160839161
2933.56372	0.160839161
2931.63501	0.160399334
2929.7063	0.160239362
2927.77759	0.16002656
2925.84889	0.160092807
2923.92018	0.16005291
2921.99147	0.159960422
2920.06276	0.159763314
2918.13406	0.159895151
2916.20535	0.159647405
2914.27664	0.159453303
2912.34794	0.159312135
2910.41923	0.159223301
2908.49052	0.159134926
2906.56181	0.158776167
2904.63311	0.15874036
2902.7044	0.158384097
2900.77569	0.158669226
2898.84698	0.158633897
2896.91828	0.158280255
2894.98957	0.158245949
2893.06086	0.158211795
2891.13216	0.157911392
2889.20345	0.157661927
2887.27474	0.157728707
2885.34603	0.157529931
2883.41733	0.157331655
2881.48862	0.157232704
2879.55991	0.157133878
2877.63121	0.157035176
2875.7025	0.156887355
2873.77379	0.156690693
2871.84508	0.156494523
2869.91638	0.15625
2867.98767	0.15600624
2866.05896	0.156074766
2864.13025	0.155880523
2862.20155	0.155686762
2860.27284	0.155493482
2858.34413	0.155658915
2856.41543	0.155727554
2854.48672	0.155486862
2852.55801	0.155151141
2850.6293	0.155076923
2848.7006	0.154907975
2846.77189	0.155045872
2844.84318	0.154878049
2842.91447	0.154758285
2840.98577	0.154686078
2839.05706	0.154311649
2837.12835	0.15428744
2835.19965	0.154008439
2833.27094	0.154031288
2831.34223	0.153753754
2829.41352	0.153523238
2827.48482	0.153546842
2825.55611	0.153317394
2823.6274	0.15308863
2821.6987	0.153158522
2819.76999	0.152930675
2817.84128	0.153046062
2815.91257	0.152773658
2813.98387	0.152547393
2812.05516	0.152366864
2810.12645	0.152141802
2808.19774	0.151962231
2806.26904	0.152077807
2804.34033	0.151854032
2802.41162	0.151924772
2800.48292	0.151701878
2798.55421	0.151524033
2796.6255	0.151346604
2794.69679	0.151125402
2792.76809	0.151196731
2790.83938	0.150976392
2788.91067	0.150800582
2786.98196	0.150872093
2785.05326	0.15065312
2783.12455	0.150434783
2781.19584	0.150260567
2779.26714	0.150043365
2777.33843	0.14982679
2775.40972	0.14994233
2773.48101	0.149769585
2771.55231	0.149554213
2769.6236	0.149382361
2767.69489	0.149454963
2765.76619	0.149283668
2763.83748	0.1490701
2761.90877	0.148899686
2759.98006	0.14901513
2758.05136	0.148802737
2756.12265	0.148633257
2754.19394	0.148464164
2752.26523	0.148537347
2750.33653	0.148368794
2748.40782	0.148200623
2746.47911	0.14770798
2744.55041	0.147781859
2742.6217	0.147615016
2740.69299	0.147448548
2738.76428	0.147564066
2736.83558	0.14735658
2734.90687	0.147191011
2732.97816	0.147025814
2731.04945	0.146819837
2729.12075	0.146655472
2727.19204	0.146450531
2725.26333	0.146525258
2723.33463	0.146361862
2721.40592	0.145879733
2719.47721	0.145995551
2717.5485	0.145833333
2715.6198	0.145631068
2713.69109	0.145706371
2711.76238	0.145268401
2709.83368	0.145344018
2707.90497	0.14518355
2705.97626	0.145023435
2704.04755	0.144863674
2702.11885	0.144664466
2700.19014	0.144740456
2698.26143	0.144581619
2696.33272	0.144109589
2694.40402	0.144225506
2692.47531	0.143794423
2690.5466	0.143910431
2688.6179	0.143714208
2686.68919	0.143557614
2684.76048	0.143673469
2682.83177	0.143478261
2680.90307	0.14359392
2678.97436	0.143399295
2677.04565	0.143243975
2675.11694	0.143088991
2673.18824	0.142625608
2671.25953	0.142471668
2669.33082	0.142318059
2667.40212	0.142126514
2665.47341	0.142242538
2663.5447	0.141783029
2661.61599	0.141899142
2659.68729	0.141709081
2657.75858	0.141557399
2655.82987	0.141368252
2653.90117	0.141217298
2651.97246	0.141029059
2650.04375	0.140841321
2648.11504	0.140691489
2646.18634	0.140807651
2644.25763	0.140658174
2642.32892	0.140471773
2640.40021	0.140323008
2638.47151	0.140137493
2636.5428	0.139989435
2634.61409	0.139804801
2632.68539	0.139657444
2630.75668	0.139773625
2628.82797	0.139589905
2626.89926	0.139443277
2624.97056	0.139260425
2623.04185	0.139114488
2621.11314	0.139230568
2619.18443	0.139084967
2617.25573	0.138903394
2615.32702	0.138722295
2613.39831	0.13828125
2611.46961	0.138397503
2609.5409	0.138217719
2607.61219	0.138074228
2605.68348	0.137895283
2603.75478	0.13775246
2601.82607	0.137868598
2599.89736	0.137726098
2597.96865	0.137548387
2596.03995	0.137406548
2594.11124	0.137265001
2592.18253	0.137088477
2590.25383	0.136912407
2588.32512	0.13699333
2586.39641	0.136852896
2584.4677	0.136421807
2582.539	0.13653797
2580.61029	0.13614304
2578.68158	0.135969388
2576.75288	0.136050955
2574.82417	0.135912446
2572.89546	0.135739705
2570.96675	0.135601828
2569.03805	0.135176262
2567.10934	0.135292627
2565.18063	0.135121457
2563.25192	0.135203437
2561.32322	0.135032812
2559.39451	0.134896621
2557.4658	0.134760705
2555.5371	0.134625063
2553.60839	0.134455893
2551.67968	0.134320864
2549.75097	0.134152457
2547.82227	0.134018036
2545.89356	0.133850388
2543.96485	0.133716571
2542.03614	0.133549675
2540.10744	0.133383196
2538.17873	0.133499377
2536.25002	0.133084577
2534.32132	0.133200795
2532.39261	0.133035493
2530.4639	0.132622707
2528.53519	0.13273898
2526.60649	0.132360218
2524.67778	0.132443786
2522.74907	0.132313009
2520.82037	0.132149901
2518.89166	0.131987195
2516.96295	0.131857319
2515.03424	0.131695332
2513.10554	0.131779141
2511.17683	0.131404756
2509.24812	0.131276023
2507.31941	0.13111546
2505.39071	0.13095529
2503.462	0.131039531
2501.53329	0.130667967
2499.60459	0.130508887
2497.67588	0.130350195
2495.74717	0.130223518
2493.81846	0.130339806
2491.88976	0.129939394
2489.96105	0.129813514
2488.03234	0.129656507
2486.10363	0.129741483
2484.17493	0.12961622
2482.24622	0.129459981
2480.31751	0.129304118
2478.38881	0.129179697
2476.4601	0.129024507
2474.53139	0.129140663
2472.60268	0.128746104
2470.67398	0.128591954
2468.74527	0.1284689
2466.81656	0.128315412
2464.88786	0.128162291
2462.95915	0.128040057
2461.03044	0.127887592
2459.10173	0.127973359
2457.17303	0.127821335
2455.24432	0.127669673
2453.31561	0.127548601
2451.3869	0.127190905
2449.4582	0.127040454
2447.52949	0.12692035
2445.60078	0.126770538
2443.67208	0.126591231
2441.74337	0.126707489
2439.81466	0.126558457
2437.88595	0.126439483
2435.95725	0.12629108
2434.02854	0.126377491
2432.09983	0.12602483
2430.17112	0.125877398
2428.24242	0.125496611
2426.31371	0.125583567
2424.385	0.125437165
2422.4563	0.125291104
2420.52759	0.125407166
2418.59888	0.12502905
2416.67017	0.124883937
2414.74147	0.124739161
2412.81276	0.12459472
2410.88405	0.124450613
2408.95535	0.124335567
2407.02664	0.124192059
2405.09793	0.124279456
2403.16922	0.123906034
2401.24052	0.123993559
2399.31181	0.123851103
2397.3831	0.123737374
2395.45439	0.123595506
2393.52569	0.12322492
2391.59698	0.123340961
2389.66827	0.1232
2387.73957	0.123031271
2385.81086	0.122891017
2383.88215	0.122751082
2381.95344	0.122639363
2380.02474	0.1225
2378.09603	0.122388738
2376.16732	0.122249943
2374.23861	0.121884912
2372.30991	0.121774559
2370.3812	0.121636898
2368.45249	0.121499548
2366.52379	0.121615523
2364.59508	0.121253099
2362.66637	0.121341738
2360.73766	0.121205307
2358.80896	0.120844564
2356.88025	0.120906236
2354.95154	0.120546717
2353.02284	0.120608637
2351.09413	0.120473849
2349.16542	0.120116097
2347.23671	0.120231988
2345.30801	0.120098039
2343.3793	0.119991095
2341.45059	0.119857683
2339.52188	0.119528994
2337.59318	0.11939636
2335.66447	0.119264021
2333.73576	0.119131975
2331.80706	0.119000221
2329.87835	0.118842501
2327.94964	0.118932039
2326.02093	0.11880097
2324.09223	0.118670189
2322.16352	0.118513632
2320.23481	0.118163848
2318.3061	0.11825362
2316.3774	0.118124041
2314.44869	0.117994746
2312.51998	0.118084408
2310.59128	0.117711291
2308.66257	0.117582897
2306.73386	0.117262424
2304.80515	0.11713477
2302.87645	0.11722488
2300.94774	0.116880295
2299.01903	0.116753472
2297.09033	0.116626924
2295.16162	0.11650065
2293.23291	0.116399827
2291.3042	0.116057921
2289.3755	0.115957677
2287.44679	0.115832614
2285.51808	0.115707822
2283.58937	0.115798536
2281.66067	0.115674049
2279.73196	0.115549828
2277.80325	0.115450644
2275.87455	0.11511254
2273.94584	0.115203426
2272.01713	0.11486631
2270.08842	0.114768113
2268.15972	0.114859095
2266.23101	0.114523353
2264.3023	0.114614401
2262.37359	0.114303959
2260.44489	0.114182437
2258.51618	0.114061172
2256.58747	0.113940165
2254.65877	0.114007205
2252.73006	0.113886537
2250.80135	0.113554663
2248.87264	0.113621964
2246.94394	0.113291139
2245.01523	0.113358618
2243.08652	0.113028836
2241.15782	0.112886273
2239.22911	0.112744069
2237.3004	0.112625839
2235.37169	0.11248429
2233.44299	0.112366604
2231.51428	0.112016719
2229.58557	0.11208516
2227.65686	0.111944966
2225.72816	0.111828405
2223.79945	0.111688852
2221.87074	0.111365053
2219.94204	0.111433907
2218.01333	0.111111111
2216.08462	0.111180124
2214.15591	0.11106515
2212.22721	0.110720925
2210.2985	0.110813042
2208.36979	0.110698825
2206.44108	0.110356187
2204.51238	0.110448375
2202.58367	0.110129443
2200.65496	0.110221675
2198.72626	0.110108673
2196.79755	0.109973377
2194.86884	0.110065466
2192.94013	0.10974862
2191.01143	0.109636586
2189.08272	0.109524781
2187.15401	0.109413203
2185.22531	0.109301852
2183.2966	0.108987393
2181.36789	0.109079829
2179.43918	0.108969156
2177.51048	0.10865599
2175.58177	0.108748481
2173.65306	0.108436172
2171.72435	0.108326597
2169.79565	0.108217242
2167.86694	0.107906414
2165.93823	0.107999194
2164.00953	0.107890499
2162.08082	0.107782023
2160.15211	0.107673765
2158.2234	0.107365041
2156.2947	0.107457899
2154.36599	0.107371795
2152.43728	0.107264359
2150.50857	0.107178564
2148.57987	0.106735958
2146.65116	0.106735958
2144.72245	0.106536078
2142.79375	0.106387226
2140.86504	0.106573705
2138.93633	0.106184132
2137.00762	0.106235107
2135.07892	0.105931363
2133.15021	0.10562822
2131.2215	0.105700713
2129.2928	0.10537762
2127.36409	0.105471065
2125.43538	0.105346222
2123.50667	0.105045329
2121.57797	0.105138807
2119.64926	0.10483871
2117.72055	0.104715128
2115.79184	0.104612365
2113.86314	0.104489316
2111.93443	0.104582844
2110.00572	0.104264476
2108.07702	0.104162595
2106.14831	0.104040601
2104.2196	0.10374415
2102.29089	0.103837912
2100.36219	0.103716676
2098.43348	0.103401361
2096.50477	0.103475053
2094.57606	0.10318076
2092.64736	0.103254552
2090.71865	0.103134675
2088.78994	0.102821801
2086.86124	0.102895753
2084.93253	0.10258388
2083.00382	0.102465331
2081.07511	0.102347057
2079.14641	0.102248703
2077.2177	0.102130927
2075.28899	0.101821668
2073.36029	0.101704654
2071.43158	0.101779223
2069.50287	0.101510227
2067.57416	0.101623687
2065.64546	0.101145038
2063.71675	0.101200686
2061.78804	0.101046622
2059.85933	0.100722159
2057.93063	0.100797267
2056.00192	0.100492984
2054.07321	0.100568182
2052.14451	0.100473037
2050.2158	0.1001701
2048.28709	0.100245422
2046.35838	0.099943428
2044.42968	0.099830477
2042.50097	0.099924727
2040.57226	0.09943609
2038.64355	0.099511829
2036.71485	0.099418496
2034.78614	0.099306727
2032.85743	0.099419584
2030.92873	0.099008048
2029.00002	0.098971001
2027.07131	0.098636279
2025.1426	0.098489088
2023.2139	0.098733234
2021.28519	0.098436918
2019.35648	0.098345417
2017.42778	0.098254086
2015.49907	0.097977361
2013.57036	0.098053753
2011.64165	0.097759674
2009.71295	0.097669256
2007.78424	0.097579006
2005.85553	0.097304284
2003.92682	0.097399004
2001.99812	0.097124954
2000.06941	0.097035537
1998.1407	0.096928453
1996.212	0.096471885
1994.28329	0.096566918
1992.35458	0.096496056
1990.42587	0.096407625
1988.49717	0.096319355
1986.56846	0.09603073
1984.63975	0.095942982
1982.71104	0.095855395
1980.78234	0.095585553
1978.85363	0.095698141
1976.92492	0.095246767
1974.99622	0.095342067
1973.06751	0.095272727
1971.1388	0.095021802
1969.21009	0.09493556
1967.28139	0.094685289
1965.35268	0.094599493
1963.42397	0.094729216
1961.49527	0.094486761
1959.56656	0.094408134
1957.63785	0.09408992
1955.70914	0.094145284
1953.78044	0.094104922
1951.85173	0.093823159
1949.92302	0.093935577
1947.99431	0.093654503
1946.06561	0.0935536
1944.1369	0.093469681
1942.20819	0.093206668
1940.27949	0.093268887
1938.35078	0.09297336
1936.42207	0.092890318
1934.49336	0.092807425
1932.56466	0.092546362
1930.63595	0.092642081
1928.70724	0.09255963
1926.77853	0.092315902
1924.84983	0.092233872
1922.92112	0.091990765
1920.99241	0.091925466
1919.06371	0.091860259
1917.135	0.091585474
1915.20629	0.091632761
1913.27758	0.091358897
1911.34888	0.091294367
1909.42017	0.091037403
1907.49146	0.090780892
1905.56276	0.090861067
1903.63405	0.09078114
1901.70534	0.090701353
1899.77663	0.090637625
1897.84793	0.090222924
1895.91922	0.090335029
1893.99051	0.090080617
1892.0618	0.090017513
1890.1331	0.090129506
1888.20439	0.089700997
1886.27568	0.089781659
1884.34698	0.089528796
1882.41827	0.089276373
1880.48956	0.089372822
1878.56085	0.089120975
1876.63215	0.089043478
1874.70344	0.088966116
1872.77473	0.088746092
1870.84602	0.088746092
1868.91732	0.088368056
1866.98861	0.088418863
1865.0599	0.088281115
1863.1312	0.0880166
1861.20249	0.088113338
1859.27378	0.087864664
1857.34507	0.087961366
1855.41637	0.087885576
1853.48766	0.087480627
1851.55895	0.087577426
1849.63025	0.087345254
1847.70154	0.087158329
1845.77283	0.087173315
1843.84412	0.086769759
1841.91542	0.086963979
1839.98671	0.086829937
1838.058	0.086740804
1836.12929	0.086666667
1834.20059	0.086251067
1832.27188	0.086407104
1830.34317	0.086206897
1828.41447	0.086148072
1826.48576	0.086059986
1824.55705	0.085631597
1822.62834	0.085699711
1820.69964	0.0854425
1818.77093	0.085214734
1816.84222	0.085326548
1814.91351	0.085113598
1812.98481	0.085084746
1811.0561	0.085041504
1809.12739	0.084814627
1807.19869	0.084926408
1805.26998	0.084714237
1803.34127	0.084545147
1801.41256	0.084545147
1799.48386	0.084178499
1797.55515	0.084290541
1795.62644	0.084121622
1793.69774	0.083826263
1791.76903	0.083826263
1789.84032	0.083572514
1787.91161	0.083684832
1785.98291	0.083516113
1784.0542	0.083347393
1782.12549	0.083333333
1780.19678	0.083150616
1778.26808	0.083122576
1776.33937	0.08296796
1774.41066	0.082700422
1772.48196	0.082756291
1770.55325	0.082559514
1768.62454	0.082489879
1766.69583	0.082574992
1764.76713	0.082196395
1762.83842	0.082392586
1760.90971	0.081914714
1758.981	0.081759946
1757.0523	0.081801316
1755.12359	0.081532748
1753.19488	0.081670612
1751.26618	0.081328363
1749.33747	0.08124152
1747.40876	0.081282878
1745.48005	0.08098472
1743.55135	0.081081081
1741.62264	0.080851064
1739.69393	0.080579216
1737.76523	0.080647911
1735.83652	0.080416596
1733.90781	0.080642406
1731.9791	0.080504861
1730.0504	0.080326753
1728.12169	0.080190282
1726.19298	0.079898219
1724.26427	0.079789937
1722.33557	0.079553148
1720.40686	0.079383886
1718.47815	0.079383886
1716.54945	0.079120879
1714.62074	0.079244647
1712.69203	0.079186281
1710.76332	0.07885906
1708.83462	0.078934138
1706.90591	0.078713783
1704.9772	0.078467459
1703.04849	0.078454333
1701.11979	0.078132843
1699.19108	0.078208556
1697.26237	0.07803902
1695.33367	0.077870216
1693.40496	0.077995353
1691.47625	0.077700464
1689.54754	0.077827455
1687.61884	0.077521948
1685.69013	0.077267452
1683.76142	0.077267452
1681.83272	0.076961271
1679.90401	0.077177326
1677.9753	0.076821411
1676.04659	0.07666887
1674.11789	0.076808722
1672.18918	0.076440482
1670.26047	0.076453104
1668.33176	0.076390035
1666.40306	0.076124567
1664.47435	0.076276771
1662.54564	0.075934772
1660.61694	0.075884774
1658.68823	0.075859799
1656.75952	0.07546548
1654.83081	0.075512227
1652.90211	0.075256368
1650.9734	0.075272367
1649.04469	0.075350371
1647.11598	0.07502061
1645.18728	0.075111184
1643.25857	0.074987667
1641.32986	0.074774035
1639.40116	0.07482322
1637.47245	0.074427795
1635.54374	0.074452314
1633.61503	0.074177632
1631.68633	0.074067991
1629.75762	0.074207848
1627.82891	0.073891626
1625.90021	0.0739159
1623.9715	0.073763759
1622.04279	0.0735753
1620.11408	0.073715318
1618.18538	0.0735753
1616.25667	0.073551141
1614.32796	0.073454665
1612.39925	0.073066841
1610.47055	0.073218673
1608.54184	0.072891073
1606.61313	0.072867202
1604.68443	0.072843346
1602.75572	0.072492227
1600.82701	0.072620216
1598.8983	0.072432963
1596.9696	0.072234025
1595.04089	0.072361973
1593.11218	0.071976497
1591.18347	0.072080887
1589.25477	0.071859215
1587.32606	0.071789028
1585.39735	0.071730644
1583.46865	0.071335717
1581.53994	0.07145177
1579.61123	0.071440169
1577.68252	0.071138541
1575.75382	0.071254666
1573.82511	0.07082658
1571.8964	0.070931174
1569.96769	0.07089673
1568.03899	0.070504528
1566.11028	0.070736434
1564.18157	0.070379338
1562.25287	0.07029735
1560.32416	0.070272021
1558.39545	0.069959514
1556.46674	0.070124414
1554.53804	0.069782434
1552.60933	0.069681365
1550.68062	0.069797362
1548.75192	0.069453376
1546.82321	0.069486891
1544.8945	0.069243156
1542.96579	0.069032258
1541.03709	0.069065677
1539.10838	0.068632189
1537.17967	0.068766067
1535.25096	0.068666774
1533.32226	0.068462402
1531.39355	0.068545804
1529.46484	0.068181818
1527.53614	0.06820365
1525.60743	0.068087152
1523.67872	0.067842823
1521.75001	0.068057785
1519.82131	0.067704155
1517.8926	0.067788462
1515.96389	0.067734187
1514.03518	0.067392348
1512.10648	0.06756324
1510.17777	0.067147436
1508.24906	0.06706241
1506.32036	0.067179734
1504.39165	0.066858605
1502.46294	0.066900846
1500.53423	0.066751836
1498.60553	0.06665601
1496.67682	0.06665601
1494.74811	0.06629393
1492.81941	0.066453674
1490.8907	0.06618705
1488.96199	0.065888374
1487.03328	0.066006073
1485.10458	0.065633983
1483.17587	0.065772669
1481.24716	0.065633983
1479.31845	0.065206968
1477.38975	0.065300896
1475.46104	0.064785119
1473.53233	0.064889174
1471.60363	0.06477017
1469.67492	0.06445909
1467.74621	0.064661412
1465.8175	0.064412238
1463.8888	0.06443299
1461.96009	0.064453754
1460.03138	0.063912201
1458.10267	0.063874515
1456.17397	0.063702506
1454.24526	0.063568893
1452.31655	0.063637828
1450.38785	0.063295217
1448.45914	0.063285024
1446.53043	0.06308336
1444.60172	0.062861736
1442.67302	0.062992126
1440.74431	0.06268081
1438.8156	0.062761506
1436.8869	0.06265099
1434.95819	0.062449702
1433.02948	0.062560309
1431.10077	0.062067857
1429.17207	0.062077839
1427.24336	0.062077839
1425.31465	0.061625101
1423.38594	0.061845708
1421.45724	0.061622842
1419.52853	0.061560834
1417.59982	0.061580734
1415.67112	0.061227787
1413.74241	0.061399257
1411.8137	0.061125485
1409.88499	0.061013109
1407.95629	0.06122449
1406.02758	0.060797665
1404.09887	0.060999351
1402.17016	0.060714286
1400.24146	0.060591293
1398.31275	0.060620835
1396.38404	0.060295791
1394.45534	0.060419035
1392.52663	0.060188189
1390.59792	0.06015891
1388.66921	0.060340633
1386.74051	0.059873438
1384.8118	0.059844307
1382.88309	0.059653104
1380.95439	0.059300065
1379.02568	0.059452454
1377.09697	0.058966467
1375.16826	0.058985578
1373.23956	0.059138043
1371.31085	0.058794947
1369.38214	0.059099741
1367.45343	0.058766391
1365.52473	0.058604501
1363.59602	0.058452073
1361.66731	0.058100016
1359.73861	0.058205335
1357.8099	0.057996769
1355.88119	0.057968674
1353.95248	0.058102001
1352.02378	0.05775125
1350.09507	0.058036434
1348.16636	0.057837925
1346.23765	0.057478667
1344.30895	0.057611844
1342.38024	0.057119871
1340.45153	0.057280772
1338.52283	0.057092313
1336.59412	0.056885746
1334.66541	0.056991491
1332.7367	0.05662496
1330.808	0.05658865
1328.87929	0.056561448
1326.95058	0.05622297
1325.02188	0.056374119
1323.09317	0.056053812
1321.16446	0.055902611
1319.23575	0.055911567
1317.30705	0.055600064
1315.37834	0.05577817
1313.44963	0.055466496
1311.52092	0.055315055
1309.59222	0.055484285
1307.66351	0.055020853
1305.7348	0.055198973
1303.8061	0.054895666
1301.87739	0.054770318
1299.94868	0.054796722
1298.01997	0.054358315
1296.09127	0.054554232
1294.16256	0.054437107
1292.23385	0.054158607
1290.30514	0.054363607
1288.37644	0.053923151
1286.44773	0.053975436
1284.51902	0.053866063
1282.59032	0.053611921
1280.66161	0.053672774
1278.7329	0.053426437
1276.80419	0.053359362
1274.87549	0.053300733
1272.94678	0.052941176
1271.01807	0.053097345
1269.08937	0.052977953
1267.16066	0.052910053
1265.23195	0.052841476
1263.30324	0.052543786
1261.37454	0.052631579
1259.44583	0.052411951
1257.51712	0.052289759
1255.58841	0.052482976
1253.65971	0.052047074
1251.731	0.052169593
1249.80229	0.052003975
1247.87359	0.051706994
1245.94488	0.051915741
1244.01617	0.051477914
1242.08746	0.051537822
1240.15876	0.051439987
1238.23005	0.051183728
1236.30134	0.051427617
1234.37263	0.051179127
1232.44393	0.051256281
1230.51522	0.051165912
1228.58651	0.050739247
1226.65781	0.050984351
1224.7291	0.050733187
1222.80039	0.050650008
1220.87168	0.050744249
1218.94298	0.050491359
1217.01427	0.05075539
1215.08556	0.050510204
1213.15686	0.050272665
1211.22815	0.050546448
1209.29944	0.050145473
1207.37073	0.050428816
1205.44203	0.050197696
1203.51332	0.049965541
1201.58461	0.050241713
1199.6559	0.049835612
1197.7272	0.049947971
1195.79849	0.050060838
1193.86978	0.049825784
1191.94108	0.050104749
1190.01237	0.049685094
1188.08366	0.049798352
1186.15495	0.049745122
1184.22625	0.049541608
1182.29754	0.049885017
1180.36883	0.049494412
1178.44012	0.049591184
1176.51142	0.049670643
1174.58271	0.049232965
1172.654	0.04951734
1170.7253	0.049274324
1168.79659	0.04939824
1166.86788	0.049513864
1164.93917	0.049277978
1163.01047	0.049583786
1161.08176	0.049519318
1159.15305	0.049463539
1157.22435	0.049781182
1155.29564	0.049369172
1153.36693	0.049514029
1151.43822	0.049475814
1149.50952	0.049261993
1147.58081	0.049602073
1145.6521	0.049219911
1143.72339	0.049580615
1141.79469	0.049747522
1139.86598	0.049512378
1137.93727	0.049840135
1136.00857	0.049603923
1134.07986	0.049763482
1132.15115	0.049933549
1130.22244	0.04974271
1128.29374	0.049942595
1126.36503	0.049769408
1124.43632	0.049787727
1122.50761	0.050009692
1120.57891	0.049853944
1118.6502	0.050097847
1116.72149	0.050157356
1114.79279	0.050029662
1112.86408	0.050308212
1110.93537	0.0502
1109.00666	0.050704225
1107.07796	0.051012146
1105.14925	0.051120163
1103.22054	0.051628765
1101.29184	0.051503914
1099.36313	0.05174912
1097.43442	0.052172106
1095.50571	0.052137643
1093.57701	0.052906734
1091.6483	0.053050954
1089.71959	0.053406224
1087.79088	0.053797468
1085.86218	0.053779378
1083.93347	0.054622742
1082.00476	0.054630815
1080.07606	0.055269923
1078.14735	0.055710906
1076.21864	0.05568746
1074.28993	0.056072743
1072.36123	0.056435858
1070.43252	0.056570931
1068.50381	0.05736096
1066.5751	0.057498907
1064.6464	0.058075827
1062.71769	0.058448693
1060.78898	0.058590308
1058.86028	0.059368793
1056.93157	0.059447514
1055.00286	0.059929235
1053.07415	0.060619469
1051.14545	0.060867641
1049.21674	0.061572536
1047.28803	0.061599823
1045.35933	0.062305987
1043.43062	0.062791214
1041.50191	0.063069065
1039.5732	0.063791954
1037.6445	0.064085447
1035.71579	0.064796259
1033.78708	0.065522621
1031.85837	0.065789474
1029.92967	0.06671129
1028.00096	0.066949342
1026.07225	0.067588668
1024.14355	0.06841988
1022.21484	0.069011576
1020.28613	0.069824327
1018.35742	0.070397513
1016.42872	0.070731707
1014.50001	0.071713147
1012.5713	0.07201237
1010.64259	0.072971781
1008.71389	0.073691157
1006.78518	0.074440053
1004.85647	0.075405524
1002.92777	0.075996496
1000.99906	0.077040928
999.07035	0.077899344
997.14164	0.078319842
995.21294	0.079667323
993.28423	0.080359098
991.35552	0.081306158
989.42682	0.082309043
987.49811	0.08289358
985.5694	0.084159506
983.64069	0.085045284
981.71199	0.085973853
979.78328	0.087188612
977.85457	0.088005361
975.92586	0.089277703
973.99716	0.090315315
972.06845	0.091320072
970.13974	0.092764799
968.21104	0.093515358
966.28233	0.09493382
964.35362	0.095881007
962.42491	0.097062873
960.49621	0.098481362
958.5675	0.099699977
956.63879	0.100972673
954.71008	0.10204556
952.78138	0.103150525
950.85267	0.104572098
948.92396	0.105560792
946.99526	0.106872038
945.06655	0.108249881
943.13784	0.109457513
941.20913	0.111003628
939.28043	0.112167764
937.35172	0.113161132
935.42301	0.114477278
933.49431	0.115317122
931.5656	0.116932422
929.63689	0.118232891
927.70818	0.119526018
925.77948	0.121038961
923.85077	0.12228332
921.92206	0.123580671
919.99335	0.124900133
918.06465	0.126007523
916.13594	0.127440347
914.20723	0.128422782
912.27853	0.129773105
910.34982	0.131225518
908.42111	0.132182281
906.4924	0.133772558
904.5637	0.135111627
902.63499	0.136777223
900.70628	0.138023152
898.77757	0.138913891
896.84887	0.140648681
894.92016	0.141807044
892.99145	0.143343653
891.06275	0.144913928
889.13404	0.145932257
887.20533	0.147614473
885.27662	0.149011986
883.34792	0.150065531
881.41921	0.15180643
879.4905	0.152815013
877.5618	0.154080596
875.63309	0.155608755
873.70438	0.156659765
871.77567	0.157913043
869.84697	0.158780231
867.91826	0.160367361
865.98955	0.161979352
864.06084	0.163140911
862.13214	0.164319249
860.20343	0.165514733
858.27472	0.166666667
856.34602	0.167772861
854.41731	0.168893838
852.4886	0.170029895
850.55989	0.171557562
848.63119	0.173040515
846.70248	0.174095238
844.77377	0.175028725
842.84506	0.176357335
840.91636	0.177244582
838.98765	0.178140801
837.05894	0.179507235
835.13024	0.180031447
833.20153	0.180956144
831.27282	0.182142857
829.34411	0.182941411
827.41541	0.183820585
825.4867	0.184782609
823.55799	0.185350061
821.62929	0.186254575
819.70058	0.187167961
817.77187	0.187935987
815.84316	0.188788129
813.91446	0.189233954
811.98575	0.190178943
810.05704	0.190794979
808.12833	0.191337258
806.19963	0.191803971
804.27092	0.192111959
802.34221	0.192683964
800.41351	0.193094629
798.4848	0.193259386
796.55609	0.193341869
794.62738	0.193259386
792.69868	0.193176972
790.76997	0.193012356
788.84126	0.193191489
786.91255	0.193027211
784.98385	0.191670208
783.05514	0.191163976
781.12643	0.190658174
779.19773	0.190072126
777.26902	0.189143342
775.34031	0.188135593
773.4116	0.186706181
771.4829	0.185545224
769.55419	0.183966245
767.62548	0.182890855
765.69678	0.180555556
763.76807	0.178721615
761.83936	0.177385456
759.91065	0.175283733
757.98195	0.173182009
756.05324	0.170803534
754.12453	0.168491997
752.19582	0.16617461
750.26712	0.163498099
748.33841	0.161235717
746.4097	0.159100552
744.481	0.156103786
742.55229	0.154010239
740.62358	0.151541096
738.69487	0.148927039
736.76617	0.146362462
734.83746	0.143844492
732.90875	0.14180399
730.98004	0.139312146
729.05134	0.137237762
727.12263	0.135645303
725.19392	0.132774592
723.26522	0.131263858
721.33651	0.129291128
719.4078	0.12735426
717.47909	0.125788999
715.55039	0.1237534
713.62168	0.122207022
711.69297	0.120697568
709.76427	0.118651893
707.83556	0.117100372
705.90685	0.115060804
703.97814	0.11393597
702.04944	0.112375533
700.12073	0.110792741
698.19202	0.10966811
696.26331	0.108042636
694.33461	0.106933594
692.4059	0.105807087
690.47719	0.104662698
688.54849	0.104
686.61978	0.102874433
684.69107	0.102342159
682.76236	0.101285347
680.83366	0.099585062
678.90495	0.098901099
676.97624	0.098204857
675.04753	0.098081023
673.11883	0.098007539
671.19012	0.097388466
669.26141	0.09675646
667.33271	0.095502499
665.404	0.094784072
663.47529	0.094617564
661.54658	0.093875215
659.61788	0.093695778
657.68917	0.092928112
655.76046	0.092198582
653.83176	0.092105263
651.90305	0.090689238
649.97434	0.090464548
648.04563	0.090179123
646.11693	0.089831566
644.18822	0.089993707
642.25951	0.088945362
640.3308	0.088518281
638.4021	0.088673139
636.47339	0.088235294
634.54468	0.088507266
632.61598	0.087566845
630.68727	0.087280108
628.75856	0.086360521
626.82985	0.085416667
624.90115	0.085151302
622.97244	0.084878745
621.04373	0.083815029
619.11502	0.082662765
617.18632	0.081360947
615.25761	0.081464873
613.3289	0.081447964
611.4002	0.080547112
609.47149	0.080398162
607.54278	0.080246914
605.61407	0.080155642
603.68537	0.080062794
601.75666	0.080031696
