4999.20917	0.597647059
4997.28046	0.594847775
4995.35176	0.595794393
4993.42305	0.594405594
4991.49434	0.595348837
4989.56564	0.593967517
4987.63693	0.594907407
4985.70822	0.597222222
4983.77951	0.595842956
4981.85081	0.596774194
4979.9221	0.597701149
4977.99339	0.596330275
4976.06468	0.597254005
4974.13598	0.595890411
4972.20727	0.596810934
4970.27856	0.596810934
4968.34986	0.597727273
4966.42115	0.598639456
4964.49244	0.599547511
4962.56373	0.598194131
4960.63503	0.599099099
4958.70632	0.597752809
4956.77761	0.596412556
4954.8489	0.597315436
4952.9202	0.598214286
4950.99149	0.599109131
4949.06278	0.597777778
4947.13408	0.598669623
4945.20537	0.597345133
4943.27666	0.598233996
4941.34795	0.599118943
4939.41925	0.6
4937.49054	0.598684211
4935.56183	0.597374179
4933.63313	0.598253275
4931.70442	0.59912854
4929.77571	0.597826087
4927.847	0.598698482
4925.9183	0.5995671
4923.98959	0.598272138
4922.06088	0.599137931
4920.13217	0.6
4918.20347	0.598712446
4916.27476	0.599571734
4914.34605	0.60042735
4912.41735	0.599147122
4910.48864	0.6
4908.55993	0.598726115
4906.63122	0.599576271
4904.70252	0.598308668
4902.77381	0.599156118
4900.8451	0.6
4898.91639	0.600840336
4896.98769	0.601677149
4895.05898	0.60041841
4893.13027	0.60125261
4891.20157	0.6
4889.27286	0.600831601
4887.34415	0.601659751
4885.41544	0.600414079
4883.48674	0.6
4881.55803	0.600823045
4879.62932	0.600823045
4877.70062	0.600409836
4875.77191	0.601226994
4873.8432	0.602040816
4871.91449	0.602851324
4869.98579	0.601626016
4868.05708	0.602434077
4866.12837	0.602020202
4864.19966	0.602020202
4862.27096	0.602822581
4860.34225	0.601609658
4858.41354	0.602409639
4856.48484	0.601202405
4854.55613	0.602
4852.62742	0.602794411
4850.69871	0.602385686
4848.77001	0.601190476
4846.8413	0.601980198
4844.91259	0.600790514
4842.98388	0.602766798
4841.05518	0.603550296
4839.12647	0.601178782
4837.19776	0.601960784
4835.26906	0.602739726
4833.34035	0.603515625
4831.41164	0.604288499
4829.48293	0.60311284
4827.55423	0.603883495
4825.62552	0.603481625
4823.69681	0.602316602
4821.76811	0.603082852
4819.8394	0.603846154
4817.91069	0.604606526
4815.98198	0.603448276
4814.05328	0.603053435
4812.12457	0.603809524
4810.19586	0.604562738
4808.26715	0.60341556
4806.33845	0.604166667
4804.40974	0.604914934
4802.48103	0.605660377
4800.55233	0.604519774
4798.62362	0.60412758
4796.69491	0.602996255
4794.7662	0.603738318
4792.8375	0.604477612
4790.90879	0.603351955
4788.98008	0.60296846
4787.05137	0.603703704
4785.12267	0.604436229
4783.19396	0.605166052
4781.26525	0.605893186
4779.33655	0.603669725
4777.40784	0.604395604
4775.47913	0.603290676
4773.55042	0.604014599
4771.62172	0.604735883
4769.69301	0.605454545
4767.7643	0.606170599
4765.8356	0.606884058
4763.90689	0.604693141
4761.97818	0.605405405
4760.04947	0.606115108
4758.12077	0.60502693
4756.19206	0.605734767
4754.26335	0.606440072
4752.33464	0.606060606
4750.40594	0.606761566
4748.47723	0.606382979
4746.54852	0.607079646
4744.61982	0.607773852
4742.69111	0.60670194
4740.7624	0.607394366
4738.83369	0.606326889
4736.90499	0.607017544
4734.97628	0.606643357
4733.04757	0.605584642
4731.11886	0.605217391
4729.19016	0.605902778
4727.26145	0.606585789
4725.33274	0.607266436
4723.40404	0.606217617
4721.47533	0.606896552
4719.54662	0.60652921
4717.61791	0.607204117
4715.68921	0.607876712
4713.7605	0.605802048
4711.83179	0.606473595
4709.90308	0.607142857
4707.97438	0.607809847
4706.04567	0.608474576
4704.11696	0.609137056
4702.18826	0.608768971
4700.25955	0.609427609
4698.33084	0.60738255
4696.40213	0.608040201
4694.47343	0.608695652
4692.54472	0.608333333
4690.61601	0.608985025
4688.68731	0.609634551
4686.7586	0.608623549
4684.82989	0.608264463
4682.90118	0.608910891
4680.97248	0.609555189
4679.04377	0.609195402
4677.11506	0.608196721
4675.18635	0.608837971
4673.25765	0.609477124
4671.32894	0.610114192
4669.40023	0.609756098
4667.47153	0.61038961
4665.54282	0.608414239
4663.61411	0.60904685
4661.6854	0.609677419
4659.7567	0.610305958
4657.82799	0.610932476
4655.89928	0.610576923
4653.97057	0.6112
4652.04187	0.609250399
4650.11316	0.609872611
4648.18445	0.610492846
4646.25575	0.610142631
4644.32704	0.609794629
4642.39833	0.610410095
4640.46962	0.611023622
4638.54092	0.61163522
4636.61221	0.611285266
4634.6835	0.611893584
4632.7548	0.6109375
4630.82609	0.6105919
4628.89738	0.611197512
4626.96867	0.610852713
4625.03997	0.611455108
4623.11126	0.611111111
4621.18255	0.611710324
4619.25384	0.610769231
4617.32514	0.611367127
4615.39643	0.611026034
4613.46772	0.610687023
4611.53902	0.611280488
4609.61031	0.611872146
4607.6816	0.613981763
4605.75289	0.612121212
4603.82419	0.612708018
4601.89548	0.610859729
4599.96677	0.612951807
4598.03806	0.613533835
4596.10936	0.611694153
4594.18065	0.612275449
4592.25194	0.611940299
4590.32324	0.612518629
4588.39453	0.613095238
4586.46582	0.612759644
4584.53711	0.611851852
4582.60841	0.611521418
4580.6797	0.612094395
4578.75099	0.614138439
4576.82229	0.613803231
4574.89358	0.612903226
4572.96487	0.612573099
4571.03616	0.613138686
4569.10746	0.612809316
4567.17875	0.613372093
4565.25004	0.613043478
4563.32133	0.613603473
4561.39263	0.61416185
4559.46392	0.613832853
4557.53521	0.614388489
4555.60651	0.614060258
4553.6778	0.614613181
4551.74909	0.614285714
4549.82038	0.614835949
4547.89168	0.615384615
4545.96297	0.613636364
4544.03426	0.614184397
4542.10555	0.613861386
4540.17685	0.61440678
4538.24814	0.614084507
4536.31943	0.614627286
4534.39073	0.61430575
4532.46202	0.616246499
4530.53331	0.616783217
4528.6046	0.615062762
4526.6759	0.615598886
4524.74719	0.615277778
4522.81848	0.615811373
4520.88978	0.61549101
4518.96107	0.615172414
4517.03236	0.615702479
4515.10365	0.615384615
4513.17495	0.615912209
4511.24624	0.615595075
4509.31753	0.616120219
4507.38882	0.615803815
4505.46012	0.616326531
4503.53141	0.616010855
4501.6027	0.616531165
4499.674	0.616216216
4497.74529	0.616734143
4495.81658	0.616419919
4493.88787	0.616935484
4491.95917	0.616621984
4490.03046	0.617135207
4488.10175	0.61682243
4486.17304	0.617333333
4484.24434	0.617021277
4482.31563	0.61752988
4480.38692	0.617218543
4478.45822	0.616908851
4476.52951	0.617414248
4474.6008	0.617105263
4472.67209	0.61760841
4470.74339	0.617300131
4468.81468	0.616993464
4466.88597	0.617493473
4464.95727	0.6171875
4463.02856	0.617685306
4461.09985	0.617380026
4459.17114	0.617875648
4457.24244	0.617571059
4455.31373	0.618064516
4453.38502	0.617760618
4451.45631	0.618251928
4449.52761	0.617948718
4447.5989	0.617647059
4445.67019	0.618135377
4443.74149	0.61910828
4441.81278	0.619592875
4439.88407	0.61928934
4437.95536	0.619771863
4436.02666	0.619469027
4434.09795	0.619167718
4432.16924	0.619647355
4430.24053	0.619346734
4428.31183	0.619047619
4426.38312	0.619524406
4424.45441	0.619225968
4422.52571	0.619700748
4420.597	0.619402985
4418.66829	0.619875776
4416.73958	0.619578686
4414.81088	0.619283066
4412.88217	0.618988903
4410.95346	0.619926199
4409.02476	0.62039312
4407.09605	0.620098039
4405.16734	0.620563035
4403.23863	0.62026862
4401.30993	0.620731707
4399.38122	0.620437956
4397.45251	0.620145631
4395.5238	0.620606061
4393.5951	0.620314389
4391.66639	0.620772947
4389.73768	0.621686747
4387.80898	0.621394231
4385.88027	0.621848739
4383.95156	0.621556886
4382.02285	0.621266428
4380.09415	0.621718377
4378.16544	0.621428571
4376.23673	0.621878716
4374.30802	0.621589561
4372.37932	0.621301775
4370.45061	0.621015348
4368.5219	0.621908127
4366.5932	0.622352941
4364.66449	0.622065728
4362.73578	0.621779859
4360.80707	0.621495327
4358.87837	0.621212121
4356.94966	0.620930233
4355.02095	0.62253194
4353.09225	0.622247972
4351.16354	0.621965318
4349.23483	0.622401848
4347.30612	0.622119816
4345.37742	0.623705409
4343.44871	0.623421355
4341.52	0.621993127
4339.59129	0.622857143
4337.66259	0.622576967
4335.73388	0.623006834
4333.80517	0.622727273
4331.87647	0.62244898
4329.94776	0.623303167
4328.01905	0.623728814
4326.09034	0.623449831
4324.16164	0.623172103
4322.23293	0.622895623
4320.30422	0.624439462
4318.37551	0.624161074
4316.44681	0.623883929
4314.5181	0.624721604
4312.58939	0.624444444
4310.66069	0.623059867
4308.73198	0.623477298
4306.80327	0.624309392
4304.87456	0.624035281
4302.94586	0.623762376
4301.01715	0.624175824
4299.08844	0.625
4297.15974	0.624726477
4295.23103	0.624454148
4293.30232	0.625272331
4291.37361	0.625
4289.44491	0.625407166
4287.5162	0.625135428
4285.58749	0.624864865
4283.65878	0.624595469
4281.73008	0.626077586
4279.80137	0.625806452
4277.87266	0.625536481
4275.94396	0.62633833
4274.01525	0.626068376
4272.08654	0.625799574
4270.15783	0.625531915
4268.22913	0.626992561
4266.30042	0.626723224
4264.37171	0.626455026
4262.443	0.626187962
4260.5143	0.625922023
4258.58559	0.625657203
4256.65688	0.625393494
4254.72818	0.62617801
4252.79947	0.625914316
4250.87076	0.626304802
4248.94205	0.627083333
4247.01335	0.627471384
4245.08464	0.627206646
4243.15593	0.626943005
4241.22723	0.627714581
4239.29852	0.626804124
4237.36981	0.627572016
4235.4411	0.627954779
4233.5124	0.627692308
4231.58369	0.627430911
4229.65498	0.627170582
4227.72627	0.626911315
4225.79757	0.627670397
4223.86886	0.627411168
4221.94015	0.627152989
4220.01145	0.627530364
4218.08274	0.628282828
4216.15403	0.628024194
4214.22532	0.628772636
4212.29662	0.628514056
4210.36791	0.628256513
4208.4392	0.628628629
4206.51049	0.628742515
4204.58179	0.628486056
4202.65308	0.628230616
4200.72437	0.628968254
4198.79567	0.628712871
4196.86696	0.628458498
4194.93825	0.628205128
4193.00954	0.628937008
4191.08084	0.629301868
4189.15213	0.630029441
4187.22342	0.629774731
4185.29472	0.629521017
4183.36601	0.629268293
4181.4373	0.630604288
4179.50859	0.629737609
4177.57989	0.629485936
4175.65118	0.630203291
4173.72247	0.629951691
4171.79376	0.629701061
4169.86506	0.629451396
4167.93635	0.630163305
4166.00764	0.629310345
4164.07894	0.63001912
4162.15023	0.630372493
4160.22152	0.630123928
4158.29281	0.630827783
4156.36411	0.631528965
4154.4354	0.631279621
4152.50669	0.63103122
4150.57798	0.631728045
4148.64928	0.631479736
4146.72057	0.631232361
4144.79186	0.630393996
4142.86316	0.630149813
4140.93445	0.630841121
4139.00574	0.630597015
4137.07703	0.631284916
4135.14833	0.63197026
4133.21962	0.631725417
4131.29091	0.631481481
4129.36221	0.631822387
4127.4335	0.632502308
4125.50479	0.632258065
4123.57608	0.632352941
4121.64738	0.632110092
4119.71867	0.631868132
4117.78996	0.632541133
4115.86125	0.63229927
4113.93255	0.632058288
4112.00384	0.632727273
4110.07513	0.632486388
4108.14643	0.632579186
4106.21772	0.632339657
4104.28901	0.632100992
4102.3603	0.632763276
4100.4316	0.632524708
4098.50289	0.633183857
4096.57418	0.633840645
4094.64547	0.63360143
4092.71677	0.633363069
4090.78806	0.633125557
4088.85935	0.633777778
4086.93065	0.632978723
4085.00194	0.633628319
4083.07323	0.633392226
4081.14452	0.633156966
4079.21582	0.633802817
4077.28711	0.633567663
4075.3584	0.633333333
4073.4297	0.633975482
4071.50099	0.633741259
4069.57228	0.634380454
4067.64357	0.634464752
4065.71487	0.634231103
4063.78616	0.634865568
4061.85745	0.634632035
4059.92874	0.634715026
4058.00004	0.634482759
4056.07133	0.634251291
4054.14262	0.634334764
4052.21392	0.63464837
4050.28521	0.635273973
4048.3565	0.635042735
4046.42779	0.635665529
4044.49909	0.634893617
4042.57038	0.635514019
4040.64167	0.635284139
4038.71296	0.635901778
4036.78426	0.635135135
4034.85555	0.635750422
4032.92684	0.635521886
4030.99814	0.636134454
4029.06943	0.635373009
4027.14072	0.635146444
4025.21201	0.635756057
4023.28331	0.636363636
4021.3546	0.636439268
4019.42589	0.636212625
4017.49719	0.635986733
4015.56848	0.636589404
4013.63977	0.636363636
4011.71106	0.636438582
4009.78236	0.636213992
4007.85365	0.63599014
4005.92494	0.636065574
4003.99623	0.636661211
4002.06753	0.637254902
4000.13882	0.636511817
3998.21011	0.637103336
3996.28141	0.636880585
3994.3527	0.636658556
3992.42399	0.637246964
3990.49528	0.637833468
3988.56658	0.637610977
3986.63787	0.637681159
3984.70916	0.637459807
3982.78045	0.637530072
3980.85175	0.637309848
3978.92304	0.637889688
3976.99433	0.637669593
3975.06563	0.638247012
3973.13692	0.637519873
3971.20821	0.638095238
3969.2795	0.638163104
3967.3508	0.638735178
3965.42209	0.63851618
3963.49338	0.638297872
3961.56468	0.63836478
3959.63597	0.638932496
3957.70726	0.639498433
3955.77855	0.638780297
3953.84985	0.639344262
3951.92114	0.639127046
3949.99243	0.638910506
3948.06372	0.639471639
3946.13502	0.63875969
3944.20631	0.639318885
3942.2776	0.639382239
3940.3489	0.6394453
3938.42019	0.639508071
3936.49148	0.639293937
3934.56277	0.639570552
3932.63407	0.639356815
3930.70536	0.639419404
3928.77665	0.639969489
3926.84794	0.639269406
3924.91924	0.639817629
3922.99053	0.639605463
3921.06182	0.639393939
3919.13312	0.639183056
3917.20441	0.639728097
3915.2757	0.640060241
3913.34699	0.64039039
3911.41829	0.640449438
3909.48958	0.640239342
3907.56087	0.640239342
3905.63217	0.63997006
3903.70346	0.639491399
3901.77475	0.640029873
3899.84604	0.640357409
3897.91734	0.640949555
3895.98863	0.641272189
3894.05992	0.641063516
3892.13121	0.640855457
3890.20251	0.641384389
3888.2738	0.641176471
3886.34509	0.641440118
3884.41639	0.640762463
3882.48768	0.640819312
3880.55897	0.640875912
3878.63026	0.641193595
3876.70156	0.641249092
3874.77285	0.641509434
3872.84414	0.641509434
3870.91543	0.641769398
3868.98673	0.641823444
3867.05802	0.642135642
3865.12931	0.642188625
3863.20061	0.642241379
3861.2719	0.641833811
3859.34319	0.641887062
3857.41448	0.641630901
3855.48578	0.640602582
3853.55707	0.640860215
3851.62836	0.642195296
3849.69966	0.64280652
3847.77095	0.642655367
3845.84224	0.642907551
3843.91353	0.642454161
3841.98483	0.642706131
3840.05612	0.642253521
3838.12741	0.642756681
3836.1987	0.643057504
3834.27	0.643356643
3832.34129	0.64410328
3830.41258	0.643702157
3828.48388	0.64375
3826.55517	0.643797644
3824.62646	0.643797644
3822.69775	0.643797644
3820.76905	0.643598616
3818.84034	0.64389234
3816.91163	0.643939394
3814.98292	0.643788607
3813.05422	0.644322845
3811.12551	0.644368601
3809.1968	0.645051195
3807.2681	0.644171779
3805.33939	0.644656229
3803.41068	0.644897959
3801.48197	0.644701087
3799.55327	0.64498645
3797.62456	0.64527027
3795.69585	0.645552561
3793.76715	0.645833333
3791.83844	0.646112601
3789.90973	0.64548495
3787.98102	0.645958584
3786.05232	0.645763843
3784.12361	0.645805593
3782.1949	0.645611702
3780.26619	0.646511628
3778.33749	0.64612326
3776.40878	0.646397885
3774.48007	0.646437995
3772.55137	0.646011866
3770.62266	0.646245059
3768.69395	0.645627876
3766.76524	0.646325459
3764.83654	0.647020301
3762.90783	0.647058824
3760.97912	0.646866841
3759.05041	0.646675359
3757.12171	0.646714379
3755.193	0.646293888
3753.26429	0.646484375
3751.33559	0.645833333
3749.40688	0.645873944
3747.47817	0.645914397
3745.54946	0.645914397
3743.62076	0.646412411
3741.69205	0.647588424
3739.76334	0.64720975
3737.83464	0.646983312
3735.90593	0.646568313
3733.97722	0.646833013
3732.04851	0.647546208
3730.11981	0.647619048
3728.1911	0.64765526
3726.26239	0.647468354
3724.33368	0.647504738
3722.40498	0.647540984
3720.47627	0.647798742
3718.54756	0.648055207
3716.61886	0.648496241
3714.69015	0.648496241
3712.76144	0.648496241
3710.83273	0.648530331
3708.90403	0.647975078
3706.97532	0.648447205
3705.04661	0.648883375
3703.1179	0.648698885
3701.1892	0.649133663
3699.26049	0.64898211
3697.33178	0.649630542
3695.40308	0.649446494
3693.47437	0.649446494
3691.54566	0.648831488
3689.61695	0.649047326
3687.68825	0.649509804
3685.75954	0.65018315
3683.83083	0.650030432
3681.90213	0.649848024
3679.97342	0.649848024
3678.04471	0.649635036
3676.116	0.649421789
3674.1873	0.64945322
3672.25859	0.64969697
3670.32988	0.649727768
3668.40117	0.650180941
3666.47247	0.65045045
3664.54376	0.650689035
3662.61505	0.651107121
3660.68635	0.650926479
3658.75764	0.650926479
3656.82893	0.650537634
3654.90022	0.649970185
3652.97152	0.650566488
3651.04281	0.650149254
3649.1141	0.650357995
3647.18539	0.650416171
3645.25669	0.651066351
3643.32798	0.651506202
3641.39927	0.651533019
3639.47057	0.651943463
3637.54186	0.651764706
3635.61315	0.651586369
3633.68444	0.651586369
3631.75574	0.650793651
3629.82703	0.65097116
3627.89832	0.651408451
3625.96961	0.652046784
3624.04091	0.652275379
3622.1122	0.652275379
3620.18349	0.651691949
3618.25479	0.651515152
3616.32608	0.651541594
3614.39737	0.651365485
3612.46866	0.651567944
3610.53996	0.651770168
3608.61125	0.65179606
3606.68254	0.652023121
3604.75384	0.652825836
3602.82513	0.65264977
3600.89642	0.652474108
3598.96771	0.652873563
3597.03901	0.652698048
3595.1103	0.652522936
3593.18159	0.652348225
3591.25288	0.652173913
3589.32418	0.652173913
3587.39547	0.652
3585.46676	0.652223489
3583.53806	0.65301479
3581.60935	0.653409091
3579.68064	0.653802497
3577.75193	0.653628118
3575.82323	0.653650255
3573.89452	0.65347654
3571.96581	0.653672316
3570.0371	0.653107345
3568.1084	0.652542373
3566.17969	0.653130288
3564.25098	0.653911086
3562.32228	0.653932584
3560.39357	0.65395401
3558.46486	0.654341737
3556.53615	0.654168998
3554.60745	0.654362416
3552.67874	0.654189944
3550.75003	0.654575893
3548.82133	0.654403567
3546.89262	0.6545961
3544.96391	0.65461624
3543.0352	0.654636313
3541.1065	0.655019412
3539.17779	0.654847645
3537.24908	0.654676259
3535.32037	0.654696133
3533.39167	0.654525386
3531.46296	0.65471594
3529.53425	0.654906284
3527.60555	0.655096419
3525.67684	0.655476059
3523.74813	0.655305113
3521.81942	0.65532382
3519.89072	0.655153509
3517.96201	0.655531216
3516.0333	0.65536105
3514.10459	0.655379574
3512.17589	0.655210038
3510.24718	0.655585831
3508.31847	0.65541644
3506.38977	0.655247417
3504.46106	0.655978261
3502.53235	0.655453066
3500.60364	0.655826558
3498.67494	0.655844156
3496.74623	0.656216216
3494.81752	0.656047516
3492.88882	0.656418554
3490.96011	0.65625
3489.0314	0.656620022
3487.10269	0.656451613
3485.17399	0.655931294
3483.24528	0.656300268
3481.31657	0.656132833
3479.38786	0.656149733
3477.45916	0.656517094
3475.53045	0.656883671
3473.60174	0.656899307
3471.67304	0.656732304
3469.74433	0.65674814
3467.81562	0.657112527
3465.88691	0.657127716
3463.95821	0.657490736
3462.0295	0.656976744
3460.10079	0.656992084
3458.17208	0.657353716
3456.24338	0.657368421
3454.31467	0.657383079
3452.38596	0.657217848
3450.45726	0.657577347
3448.52855	0.657936092
3446.59984	0.657949791
3444.67113	0.65830721
3442.74243	0.658320292
3440.81372	0.658333333
3438.88501	0.658346334
3436.95631	0.658359294
3435.0276	0.658372214
3433.09889	0.658385093
3431.17018	0.658397933
3429.24148	0.658410733
3427.31277	0.658938691
3425.38406	0.658950617
3423.45535	0.658962506
3421.52665	0.658461538
3419.59794	0.658986175
3417.66923	0.658661216
3415.74053	0.659183673
3413.81182	0.65919511
3411.88311	0.659541985
3409.9544	0.659552846
3408.0257	0.659898477
3406.09699	0.659401926
3404.16828	0.659412955
3402.23957	0.659929257
3400.31087	0.659939455
3398.38216	0.660453401
3396.45345	0.660130719
3394.52475	0.66064257
3392.59604	0.660320641
3390.66733	0.6605
3388.73862	0.660179641
3386.80992	0.660189337
3384.88121	0.660696517
3382.9525	0.660705415
3381.0238	0.660386713
3379.09509	0.66039604
3377.16638	0.660899654
3375.23767	0.660908193
3373.30897	0.660591133
3371.38026	0.660600098
3369.45155	0.660609037
3367.52284	0.66061795
3365.59414	0.661116552
3363.66543	0.661124694
3361.73672	0.660810151
3359.80802	0.661306043
3357.87931	0.661313869
3355.9506	0.661321672
3354.02189	0.661008729
3352.09319	0.661501211
3350.16448	0.661508704
3348.23577	0.661516176
3346.30706	0.661523626
3344.37836	0.661693936
3342.44965	0.661701105
3340.52094	0.6621881
3338.59224	0.662194538
3336.66353	0.662200957
3334.73482	0.661891117
3332.80611	0.662374821
3330.87741	0.662380952
3328.9487	0.662072243
3327.01999	0.662078785
3325.09129	0.662559242
3323.16258	0.662565073
3321.23387	0.662730279
3319.30516	0.662735849
3317.37646	0.663212435
3315.44775	0.66321731
3313.51904	0.663380282
3311.59033	0.663074039
3309.66163	0.662768943
3307.73292	0.663241476
3305.80421	0.663712687
3303.87551	0.663407821
3301.9468	0.663568773
3300.01809	0.663265306
3298.08938	0.663270032
3296.16068	0.663430421
3294.23197	0.663434903
3292.30326	0.663133641
3290.37455	0.663598711
3288.44585	0.664216812
3286.51714	0.664220183
3284.58843	0.664377289
3282.65973	0.66438043
3280.73102	0.664536741
3278.80231	0.664236902
3276.8736	0.664392906
3274.9449	0.664094417
3273.01619	0.664551224
3271.08748	0.664253394
3269.15878	0.664408311
3267.23007	0.664862427
3265.30136	0.664565511
3263.37265	0.665017986
3261.44395	0.665170557
3259.51524	0.664874552
3257.58653	0.664876957
3255.65782	0.665029031
3253.72912	0.665477252
3251.80041	0.665627783
3249.8717	0.665333333
3247.943	0.665778961
3246.01429	0.665780142
3244.08558	0.665929204
3242.15687	0.665636042
3240.22817	0.666078518
3238.29946	0.665785997
3236.37075	0.665934066
3234.44204	0.666081615
3232.51334	0.665790626
3230.58463	0.66593791
3228.65592	0.666375546
3226.72722	0.66652136
3224.79851	0.666231506
3222.8698	0.666666667
3220.94109	0.66681128
3219.01239	0.666522304
3217.08368	0.666666667
3215.15497	0.666810531
3213.22627	0.667241379
3211.29756	0.666953528
3209.36885	0.66709622
3207.44014	0.666952422
3205.51144	0.667380137
3203.58273	0.667521368
3201.65402	0.667235495
3199.72531	0.667660844
3197.79661	0.667375585
3195.8679	0.667940552
3193.93919	0.667655786
3192.01049	0.667795176
3190.08178	0.667934094
3188.15307	0.66835443
3186.22436	0.668070767
3184.29566	0.668208579
3182.36695	0.668345928
3180.43824	0.668482816
3178.50953	0.668619247
3176.58083	0.66833751
3174.65212	0.668473728
3172.72341	0.668609492
3170.79471	0.668744805
3168.866	0.669157327
3166.93729	0.669291339
3165.00858	0.669011171
3163.07988	0.669144981
3161.15117	0.669278351
3159.22246	0.66941128
3157.29376	0.669543773
3155.36505	0.669675831
3153.43634	0.669807456
3151.50763	0.669529652
3149.57893	0.669661086
3147.65022	0.670065253
3145.72151	0.67019544
3143.7928	0.669918699
3141.8641	0.670048701
3139.93539	0.669906845
3138.00668	0.670307443
3136.07798	0.670436187
3134.14927	0.670564516
3132.22056	0.670692432
3130.29185	0.670550422
3128.36315	0.670677898
3126.43444	0.671073718
3124.50573	0.6712
3122.57702	0.671325879
3120.64832	0.671451356
3118.71961	0.670911261
3116.7909	0.671036949
3114.8622	0.671162237
3112.93349	0.671683168
3111.00478	0.671411625
3109.07607	0.671535728
3107.14737	0.671394799
3105.21866	0.671518489
3103.28995	0.671905697
3101.36125	0.672028246
3099.43254	0.672150411
3097.50383	0.672009382
3095.57512	0.672521468
3093.64642	0.672642245
3091.71771	0.672762646
3089.789	0.672882673
3087.86029	0.672741373
3085.93159	0.672473868
3084.00288	0.672853828
3082.07417	0.672972973
3080.14547	0.67309175
3078.21676	0.673335898
3076.28805	0.673453707
3074.35934	0.673312883
3072.43064	0.673430322
3070.50193	0.673165138
3068.57322	0.673539519
3066.64451	0.673656119
3064.71581	0.673772364
3062.7871	0.673888255
3060.85839	0.673748103
3058.92969	0.673863636
3057.00098	0.67397882
3055.07227	0.674216686
3053.14356	0.674330946
3051.21486	0.674444863
3049.28615	0.67481203
3047.35744	0.674924925
3045.42874	0.675037481
3043.50003	0.675149701
3041.57132	0.675261584
3039.64261	0.675373134
3037.71391	0.674860335
3035.7852	0.674972109
3033.85649	0.674712217
3031.92778	0.675074184
3029.99908	0.675185185
3028.07037	0.675295858
3026.14166	0.675406204
3024.21296	0.675516224
3022.28425	0.67587477
3020.35554	0.675983818
3018.42683	0.675725303
3016.49813	0.676082172
3014.56942	0.676190476
3012.64071	0.675932699
3010.712	0.676287906
3008.7833	0.676277372
3006.85459	0.67638484
3004.92588	0.676374226
3002.99718	0.676363636
3001.06847	0.676716309
2999.13976	0.67670537
2997.21105	0.676939811
2995.28235	0.677173913
2993.35364	0.677045619
2991.42493	0.677279305
2989.49623	0.677396022
2987.56752	0.677512654
2985.63881	0.677512654
2983.7101	0.677874187
2981.7814	0.677874187
2979.85269	0.678002894
2977.92398	0.677769732
2975.99527	0.678027556
2974.06657	0.67816927
2972.13786	0.678194394
2970.20915	0.678467153
2968.28045	0.67874131
2966.35174	0.67888563
2964.42303	0.678650037
2962.49432	0.67888563
2960.56562	0.678858815
2958.63691	0.679066375
2956.7082	0.679142442
2954.77949	0.678972132
2952.85079	0.679047962
2950.92208	0.679367362
2948.99337	0.679455002
2947.06467	0.679670723
2945.13596	0.679656775
2943.20725	0.679528403
2941.27854	0.679528403
2939.34984	0.679528403
2937.42113	0.679771265
2935.49242	0.679771265
2933.56372	0.679885673
2931.63501	0.68
2929.7063	0.67998573
2927.77759	0.680085501
2925.84889	0.68029872
2923.92018	0.680383115
2921.99147	0.68058012
2920.06276	0.680535966
2918.13406	0.680604357
2916.20535	0.68056042
2914.27664	0.68051676
2912.34794	0.680473373
2910.41923	0.680666435
2908.49052	0.68098372
2906.56181	0.680718728
2904.63311	0.681034483
2902.7044	0.681114551
2900.77569	0.681194235
2898.84698	0.681273536
2896.91828	0.681585241
2894.98957	0.681554722
2893.06086	0.681524328
2891.13216	0.681725543
2889.20345	0.681926077
2887.27474	0.681787407
2885.34603	0.682110247
2883.41733	0.682094595
2881.48862	0.682078974
2879.55991	0.681956155
2877.63121	0.682063385
2875.7025	0.682277628
2873.77379	0.682261865
2871.84508	0.682459677
2869.91638	0.682656827
2867.98767	0.682518419
2866.05896	0.682714811
2864.13025	0.682804674
2862.20155	0.682788526
2860.27284	0.682878081
2858.34413	0.683194676
2856.41543	0.683056478
2854.48672	0.683250415
2852.55801	0.683217478
2850.6293	0.683393859
2848.7006	0.683344305
2846.77189	0.683295044
2844.84318	0.683573298
2842.91447	0.683746736
2840.98577	0.684141973
2839.05706	0.684210526
2837.12835	0.683954619
2835.19965	0.684244581
2833.27094	0.684108527
2831.34223	0.684295389
2829.41352	0.684481648
2827.48482	0.684345869
2825.55611	0.684531451
2823.6274	0.684716437
2821.6987	0.6848
2819.76999	0.684883349
2817.84128	0.684747926
2815.91257	0.684931507
2813.98387	0.685014318
2812.05516	0.68519695
2810.12645	0.685279188
2808.19774	0.685361217
2806.26904	0.685443038
2804.34033	0.685524652
2802.41162	0.685606061
2800.48292	0.685687264
2798.55421	0.68586717
2796.6255	0.685947815
2794.69679	0.686126805
2792.76809	0.686206897
2790.83938	0.686286788
2788.91067	0.686366479
2786.98196	0.686543865
2785.05326	0.686623012
2783.12455	0.686390533
2781.19584	0.686469673
2779.26714	0.686645963
2777.33843	0.686937636
2775.40972	0.686802974
2773.48101	0.686881188
2771.55231	0.686959209
2769.6236	0.687037037
2767.69489	0.687114673
2765.76619	0.6875
2763.83748	0.687576876
2761.90877	0.687653563
2759.98006	0.687423313
2758.05136	0.687806373
2756.12265	0.687882497
2754.19394	0.687958435
2752.26523	0.688034188
2750.33653	0.688109756
2748.40782	0.68818514
2746.47911	0.688260341
2744.55041	0.688335358
2742.6217	0.688410194
2740.69299	0.688484848
2738.76428	0.688559322
2736.83558	0.688633615
2734.90687	0.688707729
2732.97816	0.688781665
2731.04945	0.688855422
2729.12075	0.688929001
2727.19204	0.689002404
2725.26333	0.68907563
2723.33463	0.688942164
2721.40592	0.689015265
2719.47721	0.689088191
2717.5485	0.689160944
2715.6198	0.689531763
2713.69109	0.689603813
2711.76238	0.689675692
2709.83368	0.6897474
2707.90497	0.690115761
2705.97626	0.690186777
2704.04755	0.690257625
2702.11885	0.690328305
2700.19014	0.690398818
2698.26143	0.690174093
2696.33272	0.690244621
2694.40402	0.690609361
2692.47531	0.690679212
2690.5466	0.690748899
2688.6179	0.690818422
2686.68919	0.690887782
2684.76048	0.69095698
2682.83177	0.691116306
2680.90307	0.691185055
2678.97436	0.690962099
2677.04565	0.691030868
2675.11694	0.691099476
2673.18824	0.691167926
2671.25953	0.691236216
2669.33082	0.691304348
2667.40212	0.691372322
2665.47341	0.69164015
2663.5447	0.691796649
2661.61599	0.69186382
2659.68729	0.691930836
2657.75858	0.691997697
2655.82987	0.692064405
2653.90117	0.69241815
2651.97246	0.692484223
2650.04375	0.692550143
2648.11504	0.692615913
2646.18634	0.692197771
2644.25763	0.692549244
2642.32892	0.69261477
2640.40021	0.692680148
2638.47151	0.692745377
2636.5428	0.693007391
2634.61409	0.693356048
2632.68539	0.693420306
2630.75668	0.693484419
2628.82797	0.693265422
2626.89926	0.693329565
2624.97056	0.693675889
2623.04185	0.69354384
2621.11314	0.693607435
2619.18443	0.693670886
2617.25573	0.693734195
2615.32702	0.693797362
2613.39831	0.693860387
2611.46961	0.694008959
2609.5409	0.694265734
2607.61219	0.694328025
2605.68348	0.694196429
2603.75478	0.69425864
2601.82607	0.694599109
2599.89736	0.694660734
2597.96865	0.694915254
2596.03995	0.694976409
2594.11124	0.695037427
2592.18253	0.694905869
2590.25383	0.695243363
2588.32512	0.695303867
2586.39641	0.695364238
2584.4677	0.695424476
2582.539	0.695293146
2580.61029	0.695353313
2578.68158	0.695413348
2576.75288	0.695473251
2574.82417	0.69580707
2572.89546	0.695866411
2570.96675	0.696008748
2569.03805	0.696067723
2567.10934	0.696126568
2565.18063	0.696185286
2563.25192	0.696243876
2561.32322	0.696302338
2559.39451	0.696360674
2557.4658	0.696690179
2555.5371	0.696559198
2553.60839	0.69661705
2551.67968	0.696674777
2549.75097	0.696732379
2547.82227	0.696871629
2545.89356	0.696928879
2543.96485	0.697255113
2542.03614	0.697311828
2540.10744	0.697368421
2538.17873	0.697424893
2536.25002	0.697481243
2534.32132	0.697350816
2532.39261	0.697674419
2530.4639	0.697544047
2528.53519	0.6976
2526.60649	0.697922216
2524.67778	0.697977648
2522.74907	0.698032961
2520.82037	0.698088157
2518.89166	0.698143236
2516.96295	0.698013245
2515.03424	0.698332892
2513.10554	0.698387523
2511.17683	0.698442039
2509.24812	0.698496439
2507.31941	0.698814229
2505.39071	0.698868123
2503.462	0.69873817
2501.53329	0.698792017
2499.60459	0.69910808
2497.67588	0.698978255
2495.74717	0.699031667
2493.81846	0.699346405
2491.88976	0.699399321
2489.96105	0.699269692
2488.03234	0.699322564
2486.10363	0.699635606
2484.17493	0.699687988
2482.24622	0.699558556
2480.31751	0.699870298
2478.38881	0.69992226
2476.4601	0.70023298
2474.53139	0.700103413
2472.60268	0.700154959
2470.67398	0.700025793
2468.74527	0.7000773
2466.81656	0.7003861
2464.88786	0.700694266
2462.95915	0.700744927
2461.03044	0.7006157
2459.10173	0.700666325
2457.17303	0.700793448
2455.24432	0.700843774
2453.31561	0.700893997
2451.3869	0.701199286
2449.4582	0.701070336
2447.52949	0.701120163
2445.60078	0.701169888
2443.67208	0.701295403
2441.74337	0.701344836
2439.81466	0.701469843
2437.88595	0.701518987
2435.95725	0.701820941
2434.02854	0.701869631
2432.09983	0.701741105
2430.17112	0.702041845
2428.24242	0.701913394
2426.31371	0.70221328
2424.385	0.702261307
2422.4563	0.70238394
2420.52759	0.702431687
2418.59888	0.702553831
2416.67017	0.702601301
2414.74147	0.702648676
2412.81276	0.702520589
2410.88405	0.702567938
2408.95535	0.702615193
2407.02664	0.702911172
2405.09793	0.703031809
2403.16922	0.703078451
2401.24052	0.702950657
2399.31181	0.702997275
2397.3831	0.703291265
2395.45439	0.703163618
2393.52569	0.70345679
2391.59698	0.703749383
2389.66827	0.703794973
2387.73957	0.703667241
2385.81086	0.703958692
2383.88215	0.703831041
2381.95344	0.704121688
2380.02474	0.704166667
2378.09603	0.704039168
2376.16732	0.704084128
2374.23861	0.704129001
2372.30991	0.704173786
2370.3812	0.704462326
2368.45249	0.704506699
2366.52379	0.704550986
2364.59508	0.704423918
2362.66637	0.704711025
2360.73766	0.704584041
2358.80896	0.704699612
2356.88025	0.704985479
2354.95154	0.704858593
2353.02284	0.704973443
2351.09413	0.70525808
2349.16542	0.705372199
2347.23671	0.705415162
2345.30801	0.705288462
2343.3793	0.705500841
2341.45059	0.705543557
2339.52188	0.70558619
2337.59318	0.70545977
2335.66447	0.705572829
2333.73576	0.705685619
2331.80706	0.705966587
2329.87835	0.706078665
2327.94964	0.706120505
2326.02093	0.70623216
2324.09223	0.70634355
2322.16352	0.706454675
2320.23481	0.706733049
2318.3061	0.706606678
2316.3774	0.706480605
2314.44869	0.70659107
2312.51998	0.706632051
2310.59128	0.706742103
2308.66257	0.70701837
2306.73386	0.706892496
2304.80515	0.707168038
2302.87645	0.707042254
2300.94774	0.707317073
2299.01903	0.70719138
2297.09033	0.707231453
2295.16162	0.707339878
2293.23291	0.707379729
2291.3042	0.707652823
2289.3755	0.707925408
2287.44679	0.707964602
2285.51808	0.708003723
2283.58937	0.707878224
2281.66067	0.707985144
2279.73196	0.708024119
2277.80325	0.708063021
2275.87455	0.708169405
2273.94584	0.708208092
2272.01713	0.708477708
2270.08842	0.708352561
2268.15972	0.708390964
2266.23101	0.708429295
2264.3023	0.708534622
2262.37359	0.708572742
2260.44489	0.708677686
2258.51618	0.708715596
2256.58747	0.70882016
2254.65877	0.708924485
2252.73006	0.7088
2250.80135	0.709065997
2248.87264	0.708941606
2246.94394	0.709045341
2245.01523	0.709376422
2243.08652	0.709479427
2241.15782	0.709582198
2239.22911	0.709457927
2237.3004	0.709399773
2235.37169	0.709502262
2233.44299	0.70960452
2231.51428	0.709546378
2229.58557	0.709648332
2227.65686	0.709750056
2225.72816	0.709851552
2223.79945	0.70995282
2221.87074	0.71005386
2219.94204	0.710154674
2218.01333	0.710255262
2216.08462	0.710355625
2214.15591	0.71007371
2212.22721	0.710174029
2210.2985	0.710274125
2208.36979	0.710373998
2206.44108	0.710251279
2204.51238	0.710508776
2202.58367	0.710608078
2200.65496	0.710864745
2198.72626	0.710963455
2196.79755	0.710840708
2194.86884	0.710875332
2192.94013	0.710973725
2191.01143	0.711071901
2189.08272	0.710949548
2187.15401	0.710983931
2185.22531	0.711238179
2183.2966	0.711335677
2181.36789	0.711589113
2179.43918	0.711686034
2177.51048	0.711719606
2175.58177	0.711597374
2173.65306	0.711693989
2171.72435	0.711790393
2169.79565	0.711823735
2167.86694	0.712074978
2165.93823	0.712170695
2164.00953	0.712203611
2162.08082	0.712299
2160.15211	0.712177122
2158.2234	0.712426805
2156.2947	0.712676056
2154.36599	0.712708378
2152.43728	0.712586505
2150.50857	0.712772855
2148.57987	0.712896954
2146.65116	0.713050994
2144.72245	0.712896954
2142.79375	0.713052859
2140.86504	0.713240043
2138.93633	0.713364847
2137.00762	0.713672462
2135.07892	0.7135506
2133.15021	0.713581834
2131.2215	0.713674299
2129.2928	0.71361402
2127.36409	0.713706234
2125.43538	0.713584986
2123.50667	0.713829107
2121.57797	0.713920817
2119.64926	0.714012333
2117.72055	0.714255364
2115.79184	0.71434635
2113.86314	0.714649141
2111.93443	0.714739517
2110.00572	0.714618151
2108.07702	0.714557363
2106.14831	0.714647531
2104.2196	0.714737508
2102.29089	0.714827296
2100.36219	0.714916895
2098.43348	0.715006305
2096.50477	0.715095528
2094.57606	0.715394295
2092.64736	0.715482925
2090.71865	0.715571369
2088.78994	0.715510033
2086.86124	0.715598246
2084.93253	0.715537018
2083.00382	0.715833333
2081.07511	0.715771952
2079.14641	0.716067346
2077.2177	0.716154485
2075.28899	0.715885525
2073.36029	0.716179822
2071.43158	0.716266556
2069.50287	0.716294458
2067.57416	0.716470345
2065.64546	0.716350124
2063.71675	0.716347145
2061.78804	0.716550021
2059.85933	0.716694079
2057.93063	0.716632444
2056.00192	0.716923077
2054.07321	0.716861299
2052.14451	0.716946377
2050.2158	0.717235739
2048.28709	0.717320261
2046.35838	0.717404611
2044.42968	0.717488789
2042.50097	0.717572796
2040.57226	0.717656631
2038.64355	0.717594474
2036.71485	0.7176781
2034.78614	0.717616055
2032.85743	0.717787682
2030.92873	0.717901985
2029.00002	0.718073265
2027.07131	0.718067906
2025.1426	0.718119451
2023.2139	0.718057235
2021.28519	0.718139722
2019.35648	0.718165359
2017.42778	0.718247588
2015.49907	0.718530416
2013.57036	0.718612114
2011.64165	0.718693649
2009.71295	0.71877502
2007.78424	0.718656269
2005.85553	0.718737515
2003.92682	0.718818599
2001.99812	0.71884347
2000.06941	0.719123506
1998.1407	0.719004975
1996.212	0.719228475
1994.28329	0.719054242
1992.35458	0.719221604
1990.42587	0.719301726
1988.49717	0.719437289
1986.56846	0.719517023
1984.63975	0.719541139
1982.71104	0.719762846
1980.78234	0.719842053
1978.85363	0.719865851
1976.92492	0.719944817
1974.99622	0.719968492
1973.06751	0.719850482
1971.1388	0.720070769
1969.21009	0.720094284
1967.28139	0.720117763
1965.35268	0.720196078
1963.42397	0.720305762
1961.49527	0.720227585
1959.56656	0.72043222
1957.63785	0.720619973
1955.70914	0.720766523
1953.78044	0.720780488
1951.85173	0.720912103
1949.92302	0.720794393
1947.99431	0.720871426
1946.06561	0.720753984
1944.1369	0.72072247
1942.20819	0.720939259
1940.27949	0.721124031
1938.35078	0.721308303
1936.42207	0.721384377
1934.49336	0.721267143
1932.56466	0.721343111
1930.63595	0.721418932
1928.70724	0.721633597
1926.77853	0.721655438
1924.84983	0.721623701
1922.92112	0.721453287
1920.99241	0.721613833
1919.06371	0.721582181
1917.135	0.721849223
1915.20629	0.722083892
1913.27758	0.722073451
1911.34888	0.722232843
1909.42017	0.722254059
1907.49146	0.722328244
1905.56276	0.722264583
1903.63405	0.722338602
1901.70534	0.722359657
1899.77663	0.722380681
1897.84793	0.722591678
1895.91922	0.722559818
1893.99051	0.722770398
1892.0618	0.72279105
1890.1331	0.722569642
1888.20439	0.722832261
1886.27568	0.72295764
1884.34698	0.722893842
1882.41827	0.723103058
1880.48956	0.72312335
1878.56085	0.723332077
1876.63215	0.723352166
1874.70344	0.723372224
1872.77473	0.723340229
1870.84602	0.722964077
1868.91732	0.723016171
1866.98861	0.723192488
1865.0599	0.723284589
1863.1312	0.723595506
1861.20249	0.723666978
1859.27378	0.723873621
1857.34507	0.723944714
1855.41637	0.723829073
1853.48766	0.723900075
1851.55895	0.723733234
1849.63025	0.723649907
1847.70154	0.723649907
1845.77283	0.723546945
1843.84412	0.723566642
1841.91542	0.723894463
1839.98671	0.724035608
1838.058	0.724157095
1836.12929	0.723991114
1834.20059	0.724144311
1832.27188	0.724144311
1830.34317	0.724144311
1828.41447	0.724214418
1826.48576	0.724099723
1824.55705	0.724220624
1822.62834	0.724576271
1820.69964	0.724696356
1818.77093	0.724714969
1816.84222	0.724682963
1814.91351	0.72483468
1812.98481	0.725068871
1811.0561	0.724935733
1809.12739	0.725137615
1807.19869	0.725206233
1805.26998	0.725123694
1803.34127	0.725256598
1801.41256	0.725022915
1799.48386	0.725439883
1797.55515	0.725590768
1795.62644	0.725540491
1793.69774	0.725705904
1791.76903	0.725655602
1789.84032	0.725957135
1787.91161	0.725974739
1785.98291	0.72592457
1784.0542	0.726057499
1782.12549	0.726057499
1780.19678	0.726107653
1778.26808	0.726473819
1776.33937	0.726373626
1774.41066	0.726572529
1772.48196	0.726321586
1770.55325	0.726555331
1768.62454	0.726489459
1766.69583	0.726556777
1764.76713	0.727023068
1762.83842	0.727056237
1760.90971	0.727272727
1758.981	0.727222731
1757.0523	0.727206017
1755.12359	0.727456382
1753.19488	0.727406589
1751.26618	0.727071415
1749.33747	0.727222325
1747.40876	0.727255917
1745.48005	0.727743846
1743.55135	0.727761305
1741.62264	0.727913883
1739.69393	0.728218466
1737.76523	0.728151729
1735.83652	0.728204173
1733.90781	0.728001491
1731.9791	0.728135467
1730.0504	0.728149935
1728.12169	0.728333333
1726.19298	0.728785358
1724.26427	0.728766617
1722.33557	0.728513464
1720.40686	0.72832903
1718.47815	0.728094448
1716.54945	0.72826087
1714.62074	0.728374656
1712.69203	0.72830465
1710.76332	0.728717574
1708.83462	0.728516694
1706.90591	0.728350046
1704.9772	0.728415301
1703.04849	0.728100528
1701.11979	0.72818364
1699.19108	0.72821539
1697.26237	0.728361459
1695.33367	0.728687783
1693.40496	0.728749323
1691.47625	0.728746398
1689.54754	0.728712871
1687.61884	0.728615163
1685.69013	0.728813559
1683.76142	0.728452939
1681.83272	0.728761699
1679.90401	0.728938387
1677.9753	0.728987069
1676.04659	0.72906935
1674.11789	0.728938387
1672.18918	0.728856168
1670.26047	0.728987069
1668.33176	0.72909939
1666.40306	0.729536092
1664.47435	0.729405444
1662.54564	0.729405444
1660.61694	0.729599141
1658.68823	0.729516995
1656.75952	0.729439169
1654.83081	0.729054297
1652.90211	0.728941685
1650.9734	0.729297647
1649.04469	0.72909939
1647.11598	0.729230217
1645.18728	0.729390681
1643.25857	0.729516995
1641.32986	0.729710404
1639.40116	0.729207655
1637.47245	0.729129344
1635.54374	0.72921147
1633.61503	0.729468599
1631.68633	0.729773174
1629.75762	0.729642857
1627.82891	0.729724902
1625.90021	0.729807005
1623.9715	0.729579982
1622.04279	0.730033947
1620.11408	0.729951777
1618.18538	0.730212614
1616.25667	0.730260807
1614.32796	0.730419269
1612.39925	0.730529317
1610.47055	0.730351096
1608.54184	0.730529317
1606.61313	0.730625334
1604.68443	0.730721282
1602.75572	0.730995193
1600.82701	0.731090941
1598.8983	0.731234436
1596.9696	0.731330014
1595.04089	0.731117825
1593.11218	0.731308826
1591.18347	0.731417421
1589.25477	0.731348573
1587.32606	0.731763456
1585.39735	0.731646913
1583.46865	0.731884058
1581.53994	0.732073472
1579.61123	0.731944199
1577.68252	0.732026144
1575.75382	0.73168579
1573.82511	0.731935143
1571.8964	0.73199507
1569.96769	0.731818982
1568.03899	0.731973268
1566.11028	0.731822972
1564.18157	0.732139723
1562.25287	0.732208751
1560.32416	0.731853418
1558.39545	0.731935143
1556.46674	0.732114607
1554.53804	0.732386961
1552.60933	0.732458443
1550.68062	0.732167832
1548.75192	0.732564237
1546.82321	0.732470712
1544.8945	0.732399299
1542.96579	0.73245614
1541.03709	0.732315254
1539.10838	0.7327843
1537.17967	0.732879106
1535.25096	0.732856395
1533.32226	0.732996163
1531.39355	0.733101045
1529.46484	0.733286908
1527.53614	0.733321721
1525.60743	0.733135785
1523.67872	0.733158813
1521.75001	0.733007164
1519.82131	0.732972407
1517.8926	0.733426378
1515.96389	0.7334844
1514.03518	0.733797909
1512.10648	0.7338794
1510.17777	0.733554354
1508.24906	0.733531365
1506.32036	0.73389209
1504.39165	0.734505571
1502.46294	0.734537874
1500.53423	0.734445603
1498.60553	0.734690327
1496.67682	0.734818166
1494.74811	0.735222531
1492.81941	0.735048679
1490.8907	0.734899913
1488.96199	0.735155842
1487.03328	0.735258306
1485.10458	0.735580264
1483.17587	0.735672108
1481.24716	0.735452493
1479.31845	0.735744089
1477.38975	0.735504092
1475.46104	0.735602094
1473.53233	0.735792971
1471.60363	0.735829251
1469.67492	0.736225293
1467.74621	0.736040609
1465.8175	0.736067298
1463.8888	0.73615007
1461.96009	0.735928459
1460.03138	0.735769501
1458.10267	0.735470236
1456.17397	0.735516816
1454.24526	0.736167223
1452.31655	0.73615007
1450.38785	0.736417806
1448.45914	0.736463992
1446.53043	0.736473472
1444.60172	0.737053884
1442.67302	0.736888112
1440.74431	0.736970969
1438.8156	0.736777583
1436.8869	0.736629844
1434.95819	0.736989662
1433.02948	0.737090845
1431.10077	0.737440924
1429.17207	0.737615964
1427.24336	0.737440924
1425.31465	0.73765324
1423.38594	0.737377279
1421.45724	0.737267299
1419.52853	0.737332864
1417.59982	0.737110681
1415.67112	0.737471426
1413.74241	0.737601126
1411.8137	0.737768391
1409.88499	0.73788973
1407.95629	0.737658674
1406.02758	0.737780131
1404.09887	0.737948084
1402.17016	0.737939565
1400.24146	0.738238415
1398.31275	0.737922492
1396.38404	0.738099451
1394.45534	0.738284704
1392.52663	0.73843165
1390.59792	0.73874669
1388.66921	0.73843165
1386.74051	0.738562092
1384.8118	0.738877119
1382.88309	0.739191812
1380.95439	0.73963662
1379.02568	0.739329806
1377.09697	0.739460222
1375.16826	0.739544733
1373.23956	0.739414255
1371.31085	0.740035273
1369.38214	0.740126939
1367.45343	0.740172748
1365.52473	0.740126939
1363.59602	0.739904779
1361.66731	0.740042298
1359.73861	0.740447262
1357.8099	0.740545295
1355.88119	0.740682138
1353.95248	0.740773286
1352.02378	0.740909889
1350.09507	0.740916272
1348.16636	0.740877193
1346.23765	0.741188848
1344.30895	0.740799159
1342.38024	0.740844577
1340.45153	0.740669353
1338.52283	0.740409879
1336.59412	0.740812041
1334.66541	0.740734266
1332.7367	0.741135371
1330.808	0.74127095
1328.87929	0.741057407
1326.95058	0.741147741
1325.02188	0.741147741
1323.09317	0.741147741
1321.16446	0.741102582
1319.23575	0.741012216
1317.30705	0.74114156
1315.37834	0.741051161
1313.44963	0.741135371
1311.52092	0.74126485
1309.59222	0.741044907
1307.66351	0.741349179
1305.7348	0.741213499
1303.8061	0.741252624
1301.87739	0.741291791
1299.94868	0.741285689
1298.01997	0.741630149
1296.09127	0.741624276
1294.16256	0.741442865
1292.23385	0.741742797
1290.30514	0.741470278
1288.37644	0.74159479
1286.44773	0.74185022
1284.51902	0.741753396
1282.59032	0.742140586
1280.66161	0.7419526
1278.7329	0.741941197
1276.80419	0.742193045
1274.87549	0.741866667
1272.94678	0.742159658
1271.01807	0.742091153
1269.08937	0.74214965
1267.16066	0.74238327
1265.23195	0.742210145
1263.30324	0.742316785
1261.37454	0.742123475
1259.44583	0.742129208
1257.51712	0.742193174
1255.58841	0.742122419
1253.65971	0.742227043
1251.731	0.742052023
1249.80229	0.741690751
1247.87359	0.74186551
1245.94488	0.741585233
1244.01617	0.741801051
1242.08746	0.741835994
1240.15876	0.741191428
1238.23005	0.741360495
1236.30134	0.740983607
1234.37263	0.740923189
1232.44393	0.740727206
1230.51522	0.740483163
1228.58651	0.74060495
1226.65781	0.740359897
1224.7291	0.740114033
1222.80039	0.740051584
1220.87168	0.739571798
1218.94298	0.73964497
1217.01427	0.739210965
1215.08556	0.73904974
1213.15686	0.738936408
1211.22815	0.738538949
1209.29944	0.73837535
1207.37073	0.73797492
1205.44203	0.737572688
1203.51332	0.737544651
1201.58461	0.736762766
1199.6559	0.736543909
1197.7272	0.736134772
1195.79849	0.735723772
1193.86978	0.735691196
1191.94108	0.735277301
1190.01237	0.734912147
1188.08366	0.734635267
1186.15495	0.733922058
1184.22625	0.733731228
1182.29754	0.733050029
1180.36883	0.732661759
1178.44012	0.732142857
1176.51142	0.73167412
1174.58271	0.73139852
1172.654	0.730821784
1170.7253	0.730189787
1168.79659	0.729750932
1166.86788	0.728863547
1164.93917	0.728760103
1163.01047	0.728116973
1161.08176	0.727614897
1159.15305	0.727164416
1157.22435	0.726259208
1155.29564	0.725893392
1153.36693	0.725270324
1151.43822	0.724442659
1149.50952	0.724158775
1147.58081	0.723210675
1145.6521	0.722458917
1143.72339	0.721555058
1141.79469	0.720441086
1139.86598	0.719492219
1137.93727	0.718217293
1136.00857	0.717140503
1134.07986	0.716353111
1132.15115	0.71473029
1130.22244	0.713660975
1128.29374	0.712254287
1126.36503	0.710835783
1124.43632	0.709493671
1122.50761	0.707715134
1120.57891	0.706496273
1118.6502	0.704988225
1116.72149	0.703464601
1114.79279	0.702077023
1112.86408	0.70045682
1110.93537	0.699343545
1109.00666	0.697776799
1107.07796	0.696721311
1105.14925	0.695342099
1103.22054	0.693946188
1101.29184	0.692897407
1099.36313	0.691593021
1097.43442	0.689874858
1095.50571	0.688812785
1093.57701	0.687428441
1091.6483	0.686495177
1089.71959	0.6850956
1087.79088	0.683614514
1085.86218	0.682598608
1083.93347	0.681267474
1082.00476	0.68008425
1080.07606	0.67920094
1078.14735	0.67744219
1076.21864	0.676219801
1074.28993	0.6746673
1072.36123	0.672861568
1070.43252	0.671363745
1068.50381	0.669619344
1066.5751	0.668506961
1064.6464	0.666907341
1062.71769	0.66497707
1060.78898	0.663601162
1058.86028	0.661896677
1056.93157	0.660271977
1055.00286	0.6587263
1053.07415	0.656614786
1051.14545	0.655231144
1049.21674	0.653274897
1047.28803	0.651559454
1045.35933	0.649597659
1043.43062	0.64738897
1041.50191	0.645665446
1039.5732	0.643852359
1037.6445	0.641878669
1035.71579	0.640548482
1033.78708	0.63832394
1031.85837	0.636586562
1029.92967	0.634355828
1028.00096	0.632302405
1026.07225	0.630184049
1024.14355	0.627758705
1022.21484	0.625428711
1020.28613	0.622858541
1018.35742	0.620293399
1016.42872	0.617826618
1014.50001	0.614971958
1012.5713	0.611976631
1010.64259	0.609086492
1008.71389	0.606060606
1006.78518	0.603193806
1004.85647	0.600289995
1002.92777	0.597295992
1000.99906	0.594353282
999.07035	0.591073583
997.14164	0.588178528
995.21294	0.584942085
993.28423	0.58174354
991.35552	0.578680203
989.42682	0.575266215
987.49811	0.572121212
985.5694	0.568756074
983.64069	0.565408039
981.71199	0.562316716
979.78328	0.558989453
977.85457	0.556048288
975.92586	0.552833457
973.99716	0.549838429
972.06845	0.546793112
970.13974	0.543565348
968.21104	0.540431944
966.28233	0.537260826
964.35362	0.533568905
962.42491	0.530364372
960.49621	0.526769855
958.5675	0.523409669
956.63879	0.520040848
954.71008	0.516525749
952.78138	0.513249293
950.85267	0.509560724
948.92396	0.506102311
946.99526	0.502481066
945.06655	0.498948475
943.13784	0.495631454
941.20913	0.49226254
939.28043	0.488566048
937.35172	0.48534202
935.42301	0.481775829
933.49431	0.478417266
931.5656	0.474993015
929.63689	0.471666197
927.70818	0.468430034
925.77948	0.464869515
923.85077	0.46140503
921.92206	0.457883999
919.99335	0.454438566
918.06465	0.451067616
916.13594	0.447636146
914.20723	0.444410876
912.27853	0.441257247
910.34982	0.438001234
908.42111	0.434945398
906.4924	0.431775111
904.5637	0.428525744
902.63499	0.425566343
900.70628	0.422585925
898.77757	0.419642857
896.84887	0.416360601
894.92016	0.413351315
892.99145	0.410902896
891.06275	0.408402204
889.13404	0.405847546
887.20533	0.403379092
885.27662	0.400355872
883.34792	0.397265203
881.41921	0.394612304
879.4905	0.391976445
877.5618	0.389880952
875.63309	0.387678437
873.70438	0.385140258
871.77567	0.382881162
869.84697	0.380824028
867.91826	0.378588053
865.98955	0.376318875
864.06084	0.374409449
862.13214	0.37286791
860.20343	0.371154614
858.27472	0.369818913
856.34602	0.368314425
854.41731	0.366789066
852.4886	0.365653246
850.55989	0.364200083
848.63119	0.362577963
846.70248	0.361204013
844.77377	0.36038688
842.84506	0.359678783
840.91636	0.358538658
838.98765	0.358393849
837.05894	0.357664234
835.13024	0.357358653
833.20153	0.356895056
831.27282	0.356707317
829.34411	0.356362046
827.41541	0.356326889
825.4867	0.356291391
823.55799	0.356413671
821.62929	0.356824264
819.70058	0.357526882
817.77187	0.358074674
815.84316	0.358788974
813.91446	0.359509759
811.98575	0.361313869
810.05704	0.362677671
808.12833	0.3640553
806.19963	0.365740741
804.27092	0.36802974
802.34221	0.370629371
800.41351	0.373190098
798.4848	0.375876578
796.55609	0.378214119
794.62738	0.381308411
792.69868	0.384687208
790.76997	0.388526119
788.84126	0.392640894
786.91255	0.397113594
784.98385	0.401395349
783.05514	0.406322641
781.12643	0.411436541
779.19773	0.416821561
777.26902	0.422469824
775.34031	0.429234339
773.4116	0.435588508
771.4829	0.441258094
769.55419	0.447575058
767.62548	0.454335793
765.69678	0.461751152
763.76807	0.468692449
761.83936	0.475620975
759.91065	0.482980681
757.98195	0.489880405
756.05324	0.49654855
754.12453	0.503915246
752.19582	0.511305953
750.26712	0.518022181
748.33841	0.525
746.4097	0.531322506
744.481	0.537924616
742.55229	0.54409706
740.62358	0.55077211
738.69487	0.557015486
736.76617	0.563088512
734.83746	0.569201701
732.90875	0.574679943
730.98004	0.579723941
729.05134	0.584328715
727.12263	0.588771593
725.19392	0.593825374
723.26522	0.598158022
721.33651	0.602045787
719.4078	0.60675808
717.47909	0.61102905
715.55039	0.614851485
713.62168	0.617720259
711.69297	0.620931397
709.76427	0.624495968
707.83556	0.627092846
705.90685	0.629724208
703.97814	0.631876607
702.04944	0.634057971
700.12073	0.6359375
698.19202	0.637126377
696.26331	0.639197042
694.33461	0.640766365
692.4059	0.641823056
690.47719	0.644324324
688.54849	0.644686649
686.61978	0.645959318
684.69107	0.647418101
682.76236	0.647982063
680.83366	0.649321267
678.90495	0.649543379
676.97624	0.650921659
675.04753	0.651541594
673.11883	0.651586369
671.19012	0.652225519
669.26141	0.652877698
667.33271	0.653543307
665.404	0.65382263
663.47529	0.654511743
661.54658	0.6558401
659.61788	0.65615142
657.68917	0.65625
655.76046	0.656995487
653.83176	0.65732899
651.90305	0.657669519
649.97434	0.658455393
648.04563	0.659259259
646.11693	0.660313138
644.18822	0.660027473
642.25951	0.66042966
640.3308	0.661538462
638.4021	0.662429379
636.47339	0.663097787
634.54468	0.663302091
632.61598	0.663749088
630.68727	0.664206642
628.75856	0.664173523
626.82985	0.6641395
624.90115	0.662058372
622.97244	0.661478599
621.04373	0.661150512
619.11502	0.660015962
617.18632	0.661277284
615.25761	0.662305805
613.3289	0.662541254
611.4002	0.662510391
609.47149	0.663316583
607.54278	0.664695946
605.61407	0.665247019
603.68537	0.665236052
601.75666	0.667244367
