4999.20917	0.273364486
4997.28046	0.272093023
4995.35176	0.271461717
4993.42305	0.270833333
4991.49434	0.270207852
4989.56564	0.271889401
4987.63693	0.271264368
4985.70822	0.27293578
4983.77951	0.272311213
4981.85081	0.271689498
4979.9221	0.271070615
4977.99339	0.270454545
4976.06468	0.272108844
4974.13598	0.272108844
4972.20727	0.271493213
4970.27856	0.27027027
4968.34986	0.269662921
4966.42115	0.271300448
4964.49244	0.270693512
4962.56373	0.270089286
4960.63503	0.271714922
4958.70632	0.271111111
4956.77761	0.270509978
4954.8489	0.269911504
4952.9202	0.269315673
4950.99149	0.27092511
4949.06278	0.27032967
4947.13408	0.269736842
4945.20537	0.269146608
4943.27666	0.270742358
4941.34795	0.270152505
4939.41925	0.269565217
4937.49054	0.268980477
4935.56183	0.268398268
4933.63313	0.269978402
4931.70442	0.269396552
4929.77571	0.268817204
4927.847	0.268240343
4925.9183	0.269807281
4923.98959	0.268656716
4922.06088	0.268085106
4920.13217	0.268085106
4918.20347	0.269067797
4916.27476	0.268498943
4914.34605	0.267932489
4912.41735	0.269473684
4910.48864	0.268907563
4908.55993	0.268343816
4906.63122	0.267782427
4904.70252	0.26875
4902.77381	0.268191268
4900.8451	0.267634855
4898.91639	0.267080745
4896.98769	0.267080745
4895.05898	0.266528926
4893.13027	0.268041237
4891.20157	0.266940452
4889.27286	0.266393443
4887.34415	0.265848671
4885.41544	0.265306122
4883.48674	0.266802444
4881.55803	0.266260163
4879.62932	0.265720081
4877.70062	0.267206478
4875.77191	0.266666667
4873.8432	0.266129032
4871.91449	0.265060241
4869.98579	0.264529058
4868.05708	0.266
4866.12837	0.264940239
4864.19966	0.26640159
4862.27096	0.265873016
4860.34225	0.265346535
4858.41354	0.264822134
4856.48484	0.263779528
4854.55613	0.265748031
4852.62742	0.265225933
4850.69871	0.264187867
4848.77001	0.263671875
4846.8413	0.263157895
4844.91259	0.26459144
4842.98388	0.26407767
4841.05518	0.263565891
4839.12647	0.264478764
4837.19776	0.263969171
4835.26906	0.263461538
4833.34035	0.262955854
4831.41164	0.262452107
4829.48293	0.263862333
4827.55423	0.262857143
4825.62552	0.264258555
4823.69681	0.263757116
4821.76811	0.263257576
4819.8394	0.262759924
4817.91069	0.262264151
4815.98198	0.263653484
4814.05328	0.262664165
4812.12457	0.262172285
4810.19586	0.261682243
4808.26715	0.262569832
4806.33845	0.262081784
4804.40974	0.261595547
4802.48103	0.262962963
4800.55233	0.262476895
4798.62362	0.26199262
4796.69491	0.261029412
4794.7662	0.262385321
4792.8375	0.261904762
4790.90879	0.26142596
4788.98008	0.260948905
4787.05137	0.261818182
4785.12267	0.261343013
4783.19396	0.260869565
4781.26525	0.26039783
4779.33655	0.261261261
4777.40784	0.260791367
4775.47913	0.26032316
4773.55042	0.26118068
4771.62172	0.260714286
4769.69301	0.260249554
4767.7643	0.259786477
4765.8356	0.260638298
4763.90689	0.260176991
4761.97818	0.259717314
4760.04947	0.259259259
4758.12077	0.260105448
4756.19206	0.259649123
4754.26335	0.259194396
4752.33464	0.258289703
4750.40594	0.257839721
4748.47723	0.259130435
4746.54852	0.258232236
4744.61982	0.259515571
4742.69111	0.259067358
4740.7624	0.25862069
4738.83369	0.259450172
4736.90499	0.258561644
4734.97628	0.258119658
4733.04757	0.257679181
4731.11886	0.257240204
4729.19016	0.258064516
4727.26145	0.257627119
4725.33274	0.257191201
4723.40404	0.256756757
4721.47533	0.258010118
4719.54662	0.257142857
4717.61791	0.256711409
4715.68921	0.257956449
4713.7605	0.257525084
4711.83179	0.256666667
4709.90308	0.256239601
4707.97438	0.257048093
4706.04567	0.256622517
4704.11696	0.255775578
4702.18826	0.257001647
4700.25955	0.256578947
4698.33084	0.256157635
4696.40213	0.255319149
4694.47343	0.254486134
4692.54472	0.255700326
4690.61601	0.255284553
4688.68731	0.25445705
4686.7586	0.25566343
4684.82989	0.255250404
4682.90118	0.254428341
4680.97248	0.25562701
4679.04377	0.254807692
4677.11506	0.2544
4675.18635	0.25399361
4673.25765	0.25477707
4671.32894	0.254372019
4669.40023	0.253565769
4667.47153	0.253164557
4665.54282	0.254344392
4663.61411	0.253943218
4661.6854	0.254716981
4659.7567	0.253918495
4657.82799	0.253521127
4655.89928	0.253125
4653.97057	0.254290172
4652.04187	0.253499222
4650.11316	0.252713178
4648.18445	0.252321981
4646.25575	0.251931994
4644.32704	0.252696456
4642.39833	0.252307692
4640.46962	0.251533742
4638.54092	0.252679939
4636.61221	0.251908397
4634.6835	0.25152439
4632.7548	0.252663623
4630.82609	0.251896813
4628.89738	0.251515152
4626.96867	0.251134644
4625.03997	0.25188537
4623.11126	0.253012048
4621.18255	0.252252252
4619.25384	0.251497006
4617.32514	0.251121076
4615.39643	0.250372578
4613.46772	0.25
4611.53902	0.25074184
4609.61031	0.25037037
4607.6816	0.249630724
4605.75289	0.250368189
4603.82419	0.25
4601.89548	0.251101322
4599.96677	0.250366032
4598.03806	0.25
4596.10936	0.249635036
4594.18065	0.250363901
4592.25194	0.25
4590.32324	0.249275362
4588.39453	0.248554913
4586.46582	0.24963925
4584.53711	0.248920863
4582.60841	0.248563218
4580.6797	0.249283668
4578.75099	0.248927039
4576.82229	0.248571429
4574.89358	0.247863248
4572.96487	0.248579545
4571.03616	0.24822695
4569.10746	0.247524752
4567.17875	0.248587571
4565.25004	0.247887324
4563.32133	0.247538678
4561.39263	0.248246844
4559.46392	0.247552448
4557.53521	0.247206704
4555.60651	0.247910864
4553.6778	0.247566064
4551.74909	0.247222222
4549.82038	0.246537396
4547.89168	0.247237569
4545.96297	0.246896552
4544.03426	0.246217331
4542.10555	0.247252747
4540.17685	0.246575342
4538.24814	0.245901639
4536.31943	0.245566166
4534.39073	0.246258503
4532.46202	0.245923913
4530.53331	0.246612466
4528.6046	0.245945946
4526.6759	0.245614035
4524.74719	0.246298789
4522.81848	0.245967742
4520.88978	0.245308311
4518.96107	0.244652406
4517.03236	0.244325768
4515.10365	0.245333333
4513.17495	0.244680851
4511.24624	0.24435591
4509.31753	0.245033113
4507.38882	0.244385733
4505.46012	0.245059289
4503.53141	0.244415243
4501.6027	0.244094488
4499.674	0.244764398
4497.74529	0.244444444
4495.81658	0.24380704
4493.88787	0.243489583
4491.95917	0.244155844
4490.03046	0.243523316
4488.10175	0.242894057
4486.17304	0.243870968
4484.24434	0.243243243
4482.31563	0.242930591
4480.38692	0.243589744
4478.45822	0.243277849
4476.52951	0.24265645
4474.6008	0.242038217
4472.67209	0.242693774
4470.74339	0.242385787
4468.81468	0.243037975
4466.88597	0.242424242
4464.95727	0.242118537
4463.02856	0.241509434
4461.09985	0.242158093
4459.17114	0.24155194
4457.24244	0.24125
4455.31373	0.240648379
4453.38502	0.241293532
4451.45631	0.240993789
4449.52761	0.241635688
4447.5989	0.241038319
4445.67019	0.241975309
4443.74149	0.24137931
4441.81278	0.242014742
4439.88407	0.241717791
4437.95536	0.241126071
4436.02666	0.240537241
4434.09795	0.240243902
4432.16924	0.239659367
4430.24053	0.240291262
4428.31183	0.239709443
4426.38312	0.240628779
4424.45441	0.240048251
4422.52571	0.239470517
4420.597	0.238895558
4418.66829	0.238323353
4416.73958	0.23923445
4414.81088	0.238663484
4412.88217	0.238095238
4410.95346	0.23871734
4409.02476	0.238434164
4407.09605	0.237869822
4405.16734	0.238488784
4403.23863	0.237926973
4401.30993	0.237367803
4399.38122	0.237983587
4397.45251	0.237426901
4395.5238	0.237149533
4393.5951	0.237762238
4391.66639	0.237485448
4389.73768	0.236933798
4387.80898	0.237543453
4385.88027	0.237268519
4383.95156	0.237875289
4382.02285	0.237327189
4380.09415	0.236781609
4378.16544	0.236238532
4376.23673	0.236842105
4374.30802	0.23630137
4372.37932	0.236031927
4370.45061	0.235494881
4368.5219	0.236095346
4366.5932	0.235560589
4364.66449	0.235028249
4362.73578	0.235625705
4360.80707	0.235095613
4358.87837	0.234567901
4356.94966	0.234042553
4355.02095	0.234636872
4353.09225	0.235491071
4351.16354	0.234966592
4349.23483	0.234444444
4347.30612	0.233924612
4345.37742	0.23340708
4343.44871	0.233995585
4341.52	0.233480176
4339.59129	0.234323432
4337.66259	0.233809001
4335.73388	0.233296824
4333.80517	0.233879781
4331.87647	0.233369684
4329.94776	0.232861806
4328.01905	0.233695652
4326.09034	0.23318872
4324.16164	0.232683983
4322.23293	0.23193096
4320.30422	0.232758621
4318.37551	0.232258065
4316.44681	0.232832618
4314.5181	0.232334047
4312.58939	0.232905983
4310.66069	0.232409382
4308.73198	0.231914894
4306.80327	0.232731137
4304.87456	0.23223754
4302.94586	0.231746032
4301.01715	0.2312566
4299.08844	0.231822972
4297.15974	0.231335436
4295.23103	0.230849948
4293.30232	0.231413613
4291.37361	0.23092999
4289.44491	0.230448384
4287.5162	0.231009365
4285.58749	0.230529595
4283.65878	0.231088083
4281.73008	0.230610134
4279.80137	0.230134159
4277.87266	0.229660144
4275.94396	0.230215827
4274.01525	0.22974359
4272.08654	0.229273286
4270.15783	0.229826353
4268.22913	0.229357798
4266.30042	0.229908444
4264.37171	0.229674797
4262.443	0.229208925
4260.5143	0.229757085
4258.58559	0.229292929
4256.65688	0.228830645
4254.72818	0.228370221
4252.79947	0.228915663
4250.87076	0.228456914
4248.94205	0.227772228
4247.01335	0.227318046
4245.08464	0.227860697
4243.15593	0.227408143
4241.22723	0.227948464
4239.29852	0.227497527
4237.36981	0.228035538
4235.4411	0.227586207
4233.5124	0.227138643
4231.58369	0.226692836
4229.65498	0.227228208
4227.72627	0.226783969
4225.79757	0.226341463
4223.86886	0.226874391
4221.94015	0.226433431
4220.01145	0.22599418
4218.08274	0.226524685
4216.15403	0.226086957
4214.22532	0.225650916
4212.29662	0.225961538
4210.36791	0.225527831
4208.4392	0.22605364
4206.51049	0.225621415
4204.58179	0.22519084
4202.65308	0.225714286
4200.72437	0.225285171
4198.79567	0.224857685
4196.86696	0.225378788
4194.93825	0.224740321
4193.00954	0.224316682
4191.08084	0.223894638
4189.15213	0.223474178
4187.22342	0.223992502
4185.29472	0.223573433
4183.36601	0.224089636
4181.4373	0.222739981
4179.50859	0.223255814
4177.57989	0.222634508
4175.65118	0.223148148
4173.72247	0.222735675
4171.79376	0.222324723
4169.86506	0.222631095
4167.93635	0.222222222
4166.00764	0.22293578
4164.07894	0.222527473
4162.15023	0.221917808
4160.22152	0.221513218
4158.29281	0.222020018
4156.36411	0.221616712
4154.4354	0.221214869
4152.50669	0.221518987
4150.57798	0.222021661
4148.64928	0.221621622
4146.72057	0.221223022
4144.79186	0.220627803
4142.86316	0.220232766
4140.93445	0.220732797
4139.00574	0.220338983
4137.07703	0.220837044
4135.14833	0.220444444
4133.21962	0.219858156
4131.29091	0.220353982
4129.36221	0.219964664
4127.4335	0.21938326
4125.50479	0.219876869
4123.57608	0.219490781
4121.64738	0.219982472
4119.71867	0.21959755
4117.78996	0.220087336
4115.86125	0.219512195
4113.93255	0.22
4112.00384	0.219618056
4110.07513	0.219237435
4108.14643	0.218858131
4106.21772	0.218291631
4104.28901	0.21858864
4102.3603	0.218213058
4100.4316	0.217838765
4098.50289	0.217465753
4096.57418	0.217948718
4094.64547	0.217576792
4092.71677	0.218057922
4090.78806	0.217502124
4088.85935	0.217133164
4086.93065	0.216582064
4085.00194	0.217060811
4083.07323	0.216694772
4081.14452	0.216989066
4079.21582	0.216624685
4077.28711	0.216080402
4075.3584	0.216555184
4073.4297	0.216193656
4071.50099	0.215653622
4069.57228	0.216126351
4067.64357	0.215767635
4065.71487	0.215410108
4063.78616	0.215880893
4061.85745	0.21552436
4059.92874	0.215815486
4058.00004	0.215460526
4056.07133	0.214930271
4054.14262	0.214578215
4052.21392	0.214869281
4050.28521	0.21451876
4048.3565	0.214169381
4046.42779	0.214459789
4044.49909	0.214111922
4042.57038	0.213592233
4040.64167	0.214054927
4038.71296	0.213709677
4036.78426	0.213193886
4034.85555	0.213654618
4032.92684	0.213311949
4030.99814	0.2128
4029.06943	0.213258786
4027.14072	0.21291866
4025.21201	0.212410501
4023.28331	0.212073074
4021.3546	0.212529738
4019.42589	0.212025316
4017.49719	0.212480253
4015.56848	0.211977935
4013.63977	0.212264151
4011.71106	0.211930926
4009.78236	0.211433046
4007.85365	0.211102424
4005.92494	0.211388456
4003.99623	0.21105919
4002.06753	0.211508554
4000.13882	0.211016292
3998.21011	0.211463981
3996.28141	0.211136891
3994.3527	0.210810811
3992.42399	0.211093991
3990.49528	0.210607225
3988.56658	0.21028396
3986.63787	0.210566616
3984.70916	0.210244648
3982.78045	0.209763539
3980.85175	0.210205636
3978.92304	0.209885932
3976.99433	0.209408194
3975.06563	0.209090909
3973.13692	0.209372638
3971.20821	0.208898944
3969.2795	0.209337349
3967.3508	0.208865515
3965.42209	0.208552138
3963.49338	0.208988764
3961.56468	0.208520179
3959.63597	0.208053691
3957.70726	0.208488459
3955.77855	0.208023774
3953.84985	0.207715134
3951.92114	0.208148148
3949.99243	0.207686622
3948.06372	0.208118081
3946.13502	0.207658321
3944.20631	0.207352941
3942.2776	0.206896552
3940.3489	0.206442167
3938.42019	0.206720234
3936.49148	0.206418673
3934.56277	0.206846322
3932.63407	0.206545455
3930.70536	0.206095791
3928.77665	0.206372194
3926.84794	0.205924855
3924.91924	0.205479452
3922.99053	0.205903528
3921.06182	0.205607477
3919.13312	0.205312276
3917.20441	0.205017921
3915.2757	0.205146533
3913.34699	0.204707561
3911.41829	0.204982206
3909.48958	0.204545455
3907.56087	0.204400284
3905.63217	0.204255319
3903.70346	0.203401843
3901.77475	0.203677511
3899.84604	0.203246295
3897.91734	0.203938115
3895.98863	0.203508772
3894.05992	0.203223546
3892.13121	0.202939118
3890.20251	0.203212291
3888.2738	0.20292887
3886.34509	0.20264624
3884.41639	0.202223767
3882.48768	0.202496533
3880.55897	0.202768166
3878.63026	0.20220842
3876.70156	0.202479339
3874.77285	0.202200825
3872.84414	0.202061856
3870.91543	0.201923077
3868.98673	0.201369863
3867.05802	0.201640465
3865.12931	0.201227831
3863.20061	0.200816882
3861.2719	0.200950441
3859.34319	0.201219512
3857.41448	0.200542005
3855.48578	0.200271555
3853.55707	0.200135685
3851.62836	0.200540176
3849.69966	0.20080591
3847.77095	0.200267917
3845.84224	0.19986631
3843.91353	0.199599466
3841.98483	0.199466311
3840.05612	0.199333333
3838.12741	0.199067909
3836.1987	0.199203187
3834.27	0.199337748
3832.34129	0.198811096
3830.41258	0.199077126
3828.48388	0.198553583
3826.55517	0.198949442
3824.62646	0.198688525
3822.69775	0.197903014
3820.76905	0.198298429
3818.84034	0.197909863
3816.91163	0.197522816
3814.98292	0.197659298
3813.05422	0.19753886
3811.12551	0.197802198
3809.1968	0.197674419
3807.2681	0.197419355
3805.33939	0.197164948
3803.41068	0.196911197
3801.48197	0.196658098
3799.55327	0.196153846
3797.62456	0.196166134
3795.69585	0.196303378
3793.76715	0.196439924
3791.83844	0.19606599
3789.90973	0.195693477
3787.98102	0.195954488
3786.05232	0.195707071
3784.12361	0.195337114
3782.1949	0.195091252
3780.26619	0.195351759
3778.33749	0.194984326
3776.40878	0.195121951
3774.48007	0.194756554
3772.55137	0.194513716
3770.62266	0.194271482
3768.69395	0.194029851
3766.76524	0.194168734
3764.83654	0.194427245
3762.90783	0.194066749
3760.97912	0.19382716
3759.05041	0.193468885
3757.12171	0.193726937
3755.193	0.193607867
3753.26429	0.193111931
3751.33559	0.192378611
3749.40688	0.19202454
3747.47817	0.192401961
3745.54946	0.19228414
3743.62076	0.19219036
3741.69205	0.191863995
3739.76334	0.192004846
3737.83464	0.191399152
3735.90593	0.191283293
3733.97722	0.191425121
3732.04851	0.19133574
3730.11981	0.191361728
3728.1911	0.191017964
3726.26239	0.190789474
3724.33368	0.191044776
3722.40498	0.190589637
3720.47627	0.190844233
3718.54756	0.190984579
3716.61886	0.190645352
3714.69015	0.190532544
3712.76144	0.19041987
3710.83273	0.190082645
3708.90403	0.19011183
3706.97532	0.189553991
3705.04661	0.189220855
3703.1179	0.188999415
3701.1892	0.189252336
3699.26049	0.189393939
3697.33178	0.189063409
3695.40308	0.18873403
3693.47437	0.188624492
3691.54566	0.188044109
3689.61695	0.187935035
3687.68825	0.187969925
3685.75954	0.188472622
3683.83083	0.188614146
3681.90213	0.188397473
3679.97342	0.18771527
3678.04471	0.187141217
3676.116	0.187141217
3674.1873	0.186712486
3672.25859	0.186963979
3670.32988	0.186643836
3668.40117	0.186575654
3666.47247	0.186613727
3664.54376	0.186757216
3662.61505	0.186440678
3660.68635	0.186230248
3658.75764	0.186125212
3656.82893	0.185456595
3654.90022	0.185706246
3652.97152	0.18503937
3651.04281	0.1851435
3649.1141	0.18503937
3647.18539	0.185081324
3645.25669	0.184916201
3643.32798	0.185061315
3641.39927	0.184752365
3639.47057	0.183888889
3637.54186	0.184239734
3635.61315	0.184035477
3633.68444	0.183933518
3631.75574	0.183481153
3629.82703	0.182926829
3627.89832	0.183075221
3625.96961	0.183572216
3624.04091	0.183168317
3622.1122	0.183168317
3620.18349	0.182618262
3618.25479	0.182317408
3616.32608	0.182665935
3614.39737	0.182365827
3612.46866	0.18226601
3610.53996	0.181519956
3608.61125	0.181768559
3606.68254	0.181372549
3604.75384	0.181521739
3602.82513	0.181768855
3600.89642	0.181670282
3598.96771	0.181473456
3597.03901	0.181179016
3595.1103	0.180443004
3593.18159	0.180151025
3591.25288	0.179956897
3589.32418	0.179956897
3587.39547	0.179763186
3585.46676	0.179914071
3583.53806	0.180064309
3581.60935	0.179775281
3579.68064	0.180021368
3577.75193	0.179829242
3575.82323	0.179637527
3573.89452	0.179350718
3571.96581	0.178723404
3570.0371	0.178723404
3568.1084	0.178096757
3566.17969	0.178343949
3564.25098	0.177966102
3562.32228	0.178212586
3560.39357	0.177930306
3558.46486	0.177742616
3556.53615	0.177555321
3554.60745	0.177368421
3552.67874	0.177181914
3550.75003	0.176995798
3548.82133	0.177334732
3546.89262	0.177148847
3544.96391	0.176870748
3543.0352	0.176685834
3541.1065	0.176409186
3539.17779	0.176225235
3537.24908	0.176041667
3535.32037	0.175858481
3533.39167	0.176103896
3531.46296	0.175921121
3529.53425	0.175220321
3527.60555	0.175129534
3525.67684	0.17494824
3523.74813	0.175284385
3521.81942	0.175103306
3519.89072	0.174832388
3517.96201	0.17507724
3516.0333	0.174382716
3514.10459	0.174203494
3512.17589	0.174024641
3510.24718	0.174269605
3508.31847	0.174091142
3506.38977	0.173824131
3504.46106	0.173646578
3502.53235	0.173469388
3500.60364	0.173204279
3498.67494	0.173536896
3496.74623	0.173272358
3494.81752	0.173096447
3492.88882	0.172920892
3490.96011	0.172745694
3489.0314	0.17257085
3487.10269	0.172309247
3485.17399	0.172135285
3483.24528	0.171875
3481.31657	0.172205438
3479.38786	0.171945701
3477.45916	0.171686747
3475.53045	0.171514544
3473.60174	0.171256885
3471.67304	0.171
3469.74433	0.170829171
3467.81562	0.171072319
3465.88691	0.170816733
3463.95821	0.171059175
3462.0295	0.170804369
3460.10079	0.170634921
3458.17208	0.170381377
3456.24338	0.170128586
3454.31467	0.169960474
3452.38596	0.169708929
3450.45726	0.169048793
3448.52855	0.168799213
3446.59984	0.169041769
3444.67113	0.168792934
3442.74243	0.168544831
3440.81372	0.168786693
3438.88501	0.168539326
3436.95631	0.168292683
3435.0276	0.168533853
3433.09889	0.168287938
3431.17018	0.167961165
3429.24148	0.167635659
3427.31277	0.167392356
3425.38406	0.167551907
3423.45535	0.167309547
3421.52665	0.167067886
3419.59794	0.167307692
3417.66923	0.166986564
3415.74053	0.166746526
3413.81182	0.166905787
3411.88311	0.166666667
3409.9544	0.166507634
3408.0257	0.166269652
3406.09699	0.16603235
3404.16828	0.165795724
3402.23957	0.165559772
3400.31087	0.165246212
3398.38216	0.165406427
3396.45345	0.16509434
3394.52475	0.165254237
3392.59604	0.164943609
3390.66733	0.164634146
3388.73862	0.164794007
3386.80992	0.16456288
3384.88121	0.164255716
3382.9525	0.164026095
3381.0238	0.164186047
3379.09509	0.163957269
3377.16638	0.164116829
3375.23767	0.163888889
3373.30897	0.163585952
3371.38026	0.163359483
3369.45155	0.163519116
3367.52284	0.163293468
3365.59414	0.163068443
3363.66543	0.162769372
3361.73672	0.162471396
3359.80802	0.162248629
3357.87931	0.162408759
3355.9506	0.162186788
3354.02189	0.162346521
3352.09319	0.162125341
3350.16448	0.161831369
3348.23577	0.161611589
3346.30706	0.161392405
3344.37836	0.161552347
3342.44965	0.161333934
3340.52094	0.161043635
3338.59224	0.160754378
3336.66353	0.160538117
3334.73482	0.160698299
3332.80611	0.160482789
3330.87741	0.16064257
3328.9487	0.160356347
3327.01999	0.160142349
3325.09129	0.159857904
3323.16258	0.159645233
3321.23387	0.159805224
3319.30516	0.159522757
3317.37646	0.159311562
3315.44775	0.159030837
3313.51904	0.159190853
3311.59033	0.158911326
3309.66163	0.15907099
3307.73292	0.158862144
3305.80421	0.158584535
3303.87551	0.158307894
3301.9468	0.158467566
3300.01809	0.15826087
3298.08938	0.157986111
3296.16068	0.158145581
3294.23197	0.157871972
3292.30326	0.157599309
3290.37455	0.157327586
3288.44585	0.157487091
3286.51714	0.157284057
3284.58843	0.157375643
3282.65973	0.157106164
3280.73102	0.156837607
3278.80231	0.156996587
3276.8736	0.156729131
3274.9449	0.156529137
3273.01619	0.15626327
3271.08748	0.156355932
3269.15878	0.156091371
3267.23007	0.155827703
3265.30136	0.155564924
3263.37265	0.15530303
3261.44395	0.155462185
3259.51524	0.155266471
3257.58653	0.155006284
3255.65782	0.154746968
3253.72912	0.154906054
3251.80041	0.15506461
3249.8717	0.154806492
3247.943	0.154549231
3246.01429	0.154292825
3244.08558	0.154037267
3242.15687	0.153782555
3240.22817	0.153528683
3238.29946	0.153275649
3236.37075	0.153497942
3234.44204	0.153656532
3232.51334	0.153341533
3230.58463	0.153090463
3228.65592	0.152840213
3226.72722	0.152590779
3224.79851	0.152342159
3222.8698	0.152094347
3220.94109	0.15225335
3219.01239	0.152006486
3217.08368	0.152165115
3215.15497	0.151919192
3213.22627	0.152077451
3211.29756	0.151832461
3209.36885	0.151527331
3207.44014	0.151284109
3205.51144	0.151442308
3203.58273	0.1512
3201.65402	0.150958466
3199.72531	0.150717703
3197.79661	0.150477707
3195.8679	0.15063593
3193.93919	0.150337168
3192.01049	0.15009901
3190.08178	0.150257019
3188.15307	0.149960537
3186.22436	0.149724192
3184.29566	0.149488592
3182.36695	0.149646504
3180.43824	0.149411765
3178.50953	0.14917776
3176.58083	0.148886284
3174.65212	0.148653921
3172.72341	0.148753894
3170.79471	0.148522551
3168.866	0.148291925
3166.93729	0.148449612
3165.00858	0.148219814
3163.07988	0.147933565
3161.15117	0.148091014
3159.22246	0.147862919
3157.29376	0.147635525
3155.36505	0.147408829
3153.43634	0.147509579
3151.50763	0.147283856
3149.57893	0.147058824
3147.65022	0.146834477
3145.72151	0.146935668
3143.7928	0.146712277
3141.8641	0.146813354
3139.93539	0.146535403
3138.00668	0.1463138
3136.07798	0.146092865
3134.14927	0.145817634
3132.22056	0.145598194
3130.29185	0.145379414
3128.36315	0.14516129
3126.43444	0.14494382
3124.50573	0.145046729
3122.57702	0.144830161
3120.64832	0.144560358
3118.71961	0.144717262
3116.7909	0.144502229
3114.8622	0.144605117
3112.93349	0.144390966
3111.00478	0.144124169
3109.07607	0.143911439
3107.14737	0.143646409
3105.21866	0.14375
3103.28995	0.143538913
3101.36125	0.143328446
3099.43254	0.143118594
3097.50383	0.142857143
3095.57512	0.142961342
3093.64642	0.142753095
3091.71771	0.142493639
3089.789	0.142649728
3087.86029	0.142391304
3085.93159	0.142185239
3084.00288	0.141928494
3082.07417	0.141723765
3080.14547	0.141828654
3078.21676	0.141573841
3076.28805	0.141370649
3074.35934	0.14116804
3072.43064	0.140915594
3070.50193	0.140714286
3068.57322	0.140513552
3066.64451	0.140619438
3064.71581	0.140419481
3062.7871	0.140170334
3060.85839	0.140276302
3058.92969	0.140077821
3057.00098	0.139879901
3055.07227	0.139633286
3053.14356	0.139788732
3051.21486	0.139543058
3049.28615	0.139347139
3047.35744	0.13915177
3045.42874	0.138908328
3043.50003	0.138714186
3041.57132	0.138821067
3039.64261	0.138627656
3037.71391	0.138434783
3035.7852	0.138242445
3033.85649	0.138050642
3031.92778	0.137811634
3029.99908	0.137621024
3028.07037	0.137776243
3026.14166	0.13753878
3024.21296	0.137349398
3022.28425	0.137160536
3020.35554	0.136972194
3018.42683	0.136784368
3016.49813	0.136939404
3014.56942	0.136752137
3012.64071	0.136270492
3010.712	0.136084584
3008.7833	0.135899183
3006.85459	0.135760463
3004.92588	0.135915732
3002.99718	0.135731252
3001.06847	0.13559322
2999.13976	0.135455469
2997.21105	0.135317997
2995.28235	0.134888438
2993.35364	0.134797297
2991.42493	0.13470628
2989.49623	0.134615385
2987.56752	0.134569983
2985.63881	0.134187458
2983.7101	0.134187458
2981.7814	0.134232715
2979.85269	0.133940621
2977.92398	0.13369345
2975.99527	0.133874239
2974.06657	0.133423637
2972.13786	0.133355955
2970.20915	0.1333787
2968.28045	0.133015007
2966.35174	0.132900581
2964.42303	0.132649573
2962.49432	0.132558934
2960.56562	0.132583504
2958.63691	0.132517839
2956.7082	0.132362898
2954.77949	0.132209106
2952.85079	0.132056452
2950.92208	0.131949096
2948.99337	0.131596526
2947.06467	0.131377126
2945.13596	0.131202131
2943.20725	0.131114809
2941.27854	0.131114809
2939.34984	0.130825566
2937.42113	0.130869131
2935.49242	0.130536131
2933.56372	0.130536131
2931.63501	0.130116473
2929.7063	0.129986702
2927.77759	0.130146082
2925.84889	0.129930394
2923.92018	0.12962963
2921.99147	0.129617414
2920.06276	0.129520053
2918.13406	0.129423329
2916.20535	0.128958537
2914.27664	0.128864302
2912.34794	0.128812459
2910.41923	0.128802589
2908.49052	0.12879277
2906.56181	0.128502415
2904.63311	0.128534704
2902.7044	0.128246233
2900.77569	0.127959053
2898.84698	0.12799234
2896.91828	0.127707006
2894.98957	0.127740705
2893.06086	0.127457197
2891.13216	0.12721519
2889.20345	0.127330174
2887.27474	0.12681388
2885.34603	0.126654064
2883.41733	0.126494651
2881.48862	0.126415094
2879.55991	0.126335638
2877.63121	0.126256281
2875.7025	0.126137433
2873.77379	0.125979317
2871.84508	0.125821596
2869.91638	0.125625
2867.98767	0.125429017
2866.05896	0.125233645
2864.13025	0.125077785
2862.20155	0.124922312
2860.27284	0.124767225
2858.34413	0.124651163
2856.41543	0.124458204
2854.48672	0.124265842
2852.55801	0.123997532
2850.6293	0.124
2848.7006	0.12392638
2846.77189	0.123853211
2844.84318	0.123780488
2842.91447	0.123441776
2840.98577	0.123445557
2839.05706	0.123449319
2837.12835	0.123188406
2835.19965	0.122965642
2833.27094	0.122743682
2831.34223	0.122522523
2829.41352	0.122338831
2827.48482	0.122119126
2825.55611	0.122235505
2823.6274	0.122053118
2821.6987	0.121871275
2819.76999	0.121689973
2817.84128	0.121545319
2815.91257	0.121328982
2813.98387	0.121149289
2812.05516	0.121005917
2810.12645	0.120827179
2808.19774	0.120389495
2806.26904	0.120542293
2804.34033	0.120364921
2802.41162	0.120481928
2800.48292	0.120305164
2798.55421	0.120164127
2796.6255	0.120023419
2794.69679	0.119847998
2792.76809	0.119673088
2790.83938	0.119498688
2788.91067	0.119359534
2786.98196	0.119186047
2785.05326	0.119013062
2783.12455	0.11884058
2781.19584	0.118702953
2779.26714	0.118531367
2777.33843	0.118360277
2775.40972	0.11822376
2773.48101	0.118087558
2771.55231	0.117917745
2769.6236	0.117782246
2767.69489	0.11761331
2765.76619	0.11747851
2763.83748	0.117310443
2761.90877	0.117176336
2759.98006	0.117042535
2758.05136	0.116875713
2756.12265	0.116742597
2754.19394	0.116609784
2752.26523	0.116444192
2750.33653	0.116312057
2748.40782	0.116463587
2746.47911	0.116015846
2744.55041	0.115851936
2742.6217	0.115438894
2740.69299	0.115308712
2738.76428	0.115178823
2736.83558	0.115016873
2734.90687	0.115168539
2732.97816	0.115039282
2731.04945	0.114878117
2729.12075	0.114469633
2727.19204	0.11430967
2725.26333	0.114150154
2723.33463	0.114301645
2721.40592	0.113864143
2719.47721	0.113737486
2717.5485	0.113888889
2715.6198	0.113730929
2713.69109	0.113296399
2711.76238	0.113171002
2709.83368	0.113014645
2707.90497	0.11288987
2705.97626	0.112765371
2704.04755	0.112641146
2702.11885	0.112486249
2700.19014	0.112331777
2698.26143	0.112208505
2696.33272	0.112054795
2694.40402	0.111932129
2692.47531	0.111536359
2690.5466	0.111414528
2688.6179	0.111262612
2686.68919	0.111141378
2684.76048	0.111020408
2682.83177	0.110869565
2680.90307	0.110749186
2678.97436	0.110599078
2677.04565	0.110479285
2675.11694	0.110359751
2673.18824	0.110210697
2671.25953	0.110091743
2669.33082	0.109973046
2667.40212	0.109825034
2665.47341	0.10970691
2663.5447	0.109559613
2661.61599	0.10944206
2659.68729	0.109295473
2657.75858	0.109178485
2655.82987	0.109032603
2653.90117	0.108916177
2651.97246	0.108504399
2650.04375	0.108359957
2648.11504	0.108244681
2646.18634	0.108129649
2644.25763	0.108014862
2642.32892	0.10787172
2640.40021	0.107757479
2638.47151	0.107350608
2636.5428	0.10723719
2634.61409	0.107095753
2632.68539	0.106982872
2630.75668	0.106870229
2628.82797	0.106729758
2626.89926	0.106355042
2624.97056	0.106215578
2623.04185	0.10610427
2621.11314	0.106254907
2619.18443	0.106143791
2617.25573	0.106005222
2615.32702	0.105867014
2613.39831	0.10546875
2611.46961	0.105098855
2609.5409	0.104962328
2607.61219	0.104853361
2605.68348	0.104976672
2603.75478	0.104867944
2601.82607	0.104500776
2599.89736	0.104392765
2597.96865	0.104258065
2596.03995	0.104150554
2594.11124	0.104043266
2592.18253	0.103909465
2590.25383	0.103776008
2588.32512	0.103386352
2586.39641	0.103536648
2584.4677	0.103148196
2582.539	0.1030427
2580.61029	0.10293742
2578.68158	0.102806122
2576.75288	0.102675159
2574.82417	0.102570629
2572.89546	0.102440264
2570.96675	0.102336211
2569.03805	0.102206442
2567.10934	0.101849506
2565.18063	0.101467611
2563.25192	0.101339399
2561.32322	0.101211509
2559.39451	0.10110943
2557.4658	0.101007557
2555.5371	0.100905888
2553.60839	0.10077909
2551.67968	0.100677881
2549.75097	0.100551655
2547.82227	0.100450902
2545.89356	0.100325244
2543.96485	0.099975006
2542.03614	0.099850225
2540.10744	0.099725754
2538.17873	0.099626401
2536.25002	0.099502488
2534.32132	0.099403579
2532.39261	0.099032018
2530.4639	0.098661378
2528.53519	0.098563645
2526.60649	0.098466106
2524.67778	0.098344453
2522.74907	0.098247346
2520.82037	0.098126233
2518.89166	0.098005417
2516.96295	0.097908979
2515.03424	0.097788698
2513.10554	0.097668712
2511.17683	0.097572935
2509.24812	0.097477345
2507.31941	0.097358121
2505.39071	0.096994869
2503.462	0.096876525
2501.53329	0.096782058
2499.60459	0.096420745
2497.67588	0.096303502
2495.74717	0.096452867
2493.81846	0.096359223
2491.88976	0.096
2489.96105	0.095906999
2488.03234	0.095791001
2486.10363	0.09543368
2484.17493	0.09534154
2482.24622	0.095226615
2480.31751	0.094871177
2478.38881	0.094779889
2476.4601	0.094666026
2474.53139	0.094575132
2472.60268	0.09446176
2470.67398	0.094109195
2468.74527	0.094019139
2466.81656	0.09390681
2464.88786	0.093794749
2462.95915	0.093705293
2461.03044	0.093593713
2459.10173	0.093244529
2457.17303	0.093133761
2455.24432	0.092785952
2453.31561	0.09293504
2451.3869	0.092846992
2449.4582	0.092737166
2447.52949	0.092649492
2445.60078	0.092540132
2443.67208	0.092173503
2441.74337	0.09208667
2439.81466	0.091978358
2437.88595	0.091891892
2435.95725	0.091549296
2434.02854	0.09144197
2432.09983	0.09135629
2430.17112	0.091249415
2428.24242	0.09114279
2426.31371	0.091036415
2424.385	0.090697132
2422.4563	0.090591523
2420.52759	0.090274546
2418.59888	0.090169649
2416.67017	0.090064995
2414.74147	0.089960584
2412.81276	0.089856415
2410.88405	0.089752487
2408.95535	0.089669517
2407.02664	0.08933518
2405.09793	0.089462762
2403.16922	0.089129433
2401.24052	0.089026915
2399.31181	0.088924632
2397.3831	0.088613407
2395.45439	0.088511809
2393.52569	0.088410444
2391.59698	0.088329519
2389.66827	0.088228571
2387.73957	0.08787948
2385.81086	0.087779298
2383.88215	0.087679344
2381.95344	0.087372014
2380.02474	0.087272727
2378.09603	0.08719346
2376.16732	0.087094579
2374.23861	0.086995922
2372.30991	0.08669081
2370.3812	0.08659281
2368.45249	0.086269196
2366.52379	0.086191336
2364.59508	0.086094208
2362.66637	0.085997299
2360.73766	0.085900607
2358.80896	0.085579515
2356.88025	0.085464334
2354.95154	0.085368586
2353.02284	0.085253972
2351.09413	0.085158695
2349.16542	0.084840366
2347.23671	0.084764667
2345.30801	0.084670232
2343.3793	0.084372217
2341.45059	0.084278408
2339.52188	0.08420351
2337.59318	0.083888149
2335.66447	0.083795167
2333.73576	0.083702391
2331.80706	0.083609821
2329.87835	0.083499006
2327.94964	0.083186231
2326.02093	0.083314966
2324.09223	0.083003082
2322.16352	0.08289358
2320.23481	0.082582912
2318.3061	0.082492321
2316.3774	0.082401929
2314.44869	0.082311734
2312.51998	0.082003061
2310.59128	0.08189561
2308.66257	0.081588133
2306.73386	0.081517001
2304.80515	0.08142826
2302.87645	0.081339713
2300.94774	0.081251358
2299.01903	0.081163194
2297.09033	0.081075222
2295.16162	0.08098744
2293.23291	0.080700995
2291.3042	0.080613789
2289.3755	0.080328223
2287.44679	0.080025884
2285.51808	0.079939668
2283.58937	0.079638399
2281.66067	0.079552784
2279.73196	0.079467354
2277.80325	0.079399142
2275.87455	0.079314041
2273.94584	0.079229122
2272.01713	0.078930481
2270.08842	0.078863005
2268.15972	0.078565329
2266.23101	0.078481553
2264.3023	0.078397955
2262.37359	0.078118348
2260.44489	0.078035297
2258.51618	0.077952421
2256.58747	0.077869722
2254.65877	0.077558805
2252.73006	0.077476715
2250.80135	0.077394798
2248.87264	0.077296727
2246.94394	0.07721519
2245.01523	0.076906869
2243.08652	0.076615449
2241.15782	0.076518814
2239.22911	0.076212471
2237.3004	0.07613255
2235.37169	0.076036866
2233.44299	0.075957313
2231.51428	0.075862069
2229.58557	0.075558339
2227.65686	0.075672295
2225.72816	0.075385256
2223.79945	0.075291181
2221.87074	0.075212965
2219.94204	0.075119319
2218.01333	0.074834163
2216.08462	0.074741201
2214.15591	0.074663909
2212.22721	0.07457137
2210.2985	0.074288073
2208.36979	0.074211503
2206.44108	0.074119827
2204.51238	0.074043603
2202.58367	0.073967536
2200.65496	0.073686371
2198.72626	0.073610826
2196.79755	0.073315585
2194.86884	0.073240589
2192.94013	0.072961373
2191.01143	0.072886893
2189.08272	0.072608607
2187.15401	0.072534637
2185.22531	0.072460818
2183.2966	0.072387149
2181.36789	0.07231363
2179.43918	0.072037338
2177.51048	0.071964322
2175.58177	0.071688943
2173.65306	0.071616427
2171.72435	0.071544058
2169.79565	0.071269937
2167.86694	0.071198064
2165.93823	0.071126335
2164.00953	0.07105475
2162.08082	0.070782224
2160.15211	0.070711129
2158.2234	0.070439494
2156.2947	0.070368885
2154.36599	0.0703125
2152.43728	0.070042025
2150.50857	0.069786043
2148.57987	0.069758145
2146.65116	0.069558265
2144.72245	0.069558265
2142.79375	0.069461078
2140.86504	0.069322709
2138.93633	0.069198648
2137.00762	0.068903892
2135.07892	0.068835549
2133.15021	0.06876734
2131.2215	0.068685669
2129.2928	0.068406485
2127.36409	0.068338929
2125.43538	0.068060761
2123.50667	0.067993693
2121.57797	0.067926757
2119.64926	0.067859953
2117.72055	0.067779961
2115.79184	0.067517174
2113.86314	0.067437757
2111.93443	0.067175872
2110.00572	0.067097027
2108.07702	0.066836037
2106.14831	0.066757759
2104.2196	0.06649766
2102.29089	0.066432885
2100.36219	0.066355322
2098.43348	0.066083576
2096.50477	0.066006601
2094.57606	0.065942591
2092.64736	0.06567222
2090.71865	0.065402477
2088.78994	0.065326633
2086.86124	0.065057915
2084.93253	0.065175472
2083.00382	0.06490755
2081.07511	0.064832628
2079.14641	0.064578128
2077.2177	0.064503744
2075.28899	0.06442953
2073.36029	0.064163953
2071.43158	0.0640903
2069.50287	0.064041292
2067.57416	0.063992359
2065.64546	0.063740458
2063.71675	0.063464837
2061.78804	0.063368221
2059.85933	0.063283922
2057.93063	0.063211845
2056.00192	0.062950322
2054.07321	0.062878788
2052.14451	0.062630085
2050.2158	0.062559063
2048.28709	0.062488201
2046.35838	0.062228927
2044.42968	0.062158599
2042.50097	0.061911931
2040.57226	0.061842105
2038.64355	0.061584679
2036.71485	0.061526918
2034.78614	0.061457748
2032.85743	0.06122449
2030.92873	0.061201572
2029.00002	0.060991581
2027.07131	0.06090043
2025.1426	0.06080955
2023.2139	0.060543964
2021.28519	0.060476368
2019.35648	0.060234244
2017.42778	0.059992571
2015.49907	0.060122472
2013.57036	0.05987025
2011.64165	0.05980374
2009.71295	0.059748428
2007.78424	0.059508409
2005.85553	0.059268833
2003.92682	0.059029699
2001.99812	0.058975304
2000.06941	0.058921009
1998.1407	0.058672062
1996.212	0.058618155
1994.28329	0.05838076
1992.35458	0.05833792
1990.42587	0.058101173
1988.49717	0.058047977
1986.56846	0.057801354
1984.63975	0.057565789
1982.71104	0.057513237
1980.78234	0.057460781
1978.85363	0.057236602
1976.92492	0.057184484
1974.99622	0.05713246
1973.06751	0.056909091
1971.1388	0.056867733
1969.21009	0.056634598
1967.28139	0.056593506
1965.35268	0.056361
1963.42397	0.056149248
1961.49527	0.055857816
1959.56656	0.05573711
1957.63785	0.055656273
1955.70914	0.055655945
1953.78044	0.055525509
1951.85173	0.055465514
1949.92302	0.055245636
1947.99431	0.055186051
1946.06561	0.054947028
1944.1369	0.05489774
1942.20819	0.054848539
1940.27949	0.054600788
1938.35078	0.054353656
1936.42207	0.054305109
1934.49336	0.054078172
1932.56466	0.054029957
1930.63595	0.05380367
1928.70724	0.053755785
1926.77853	0.053539666
1924.84983	0.053314377
1922.92112	0.053276505
1920.99241	0.053238687
1919.06371	0.053023586
1917.135	0.052967228
1915.20629	0.052715372
1913.27758	0.052482771
1911.34888	0.0524457
1909.42017	0.052399435
1907.49146	0.052353252
1905.56276	0.05229794
1903.63405	0.052076003
1901.70534	0.052030234
1899.77663	0.051818022
1897.84793	0.051606108
1895.91922	0.051394492
1893.99051	0.051174203
1892.0618	0.051138354
1890.1331	0.050927546
1888.20439	0.050883022
1886.27568	0.050829694
1884.34698	0.05061082
1882.41827	0.050392328
1880.48956	0.050174216
1878.56085	0.050130548
1876.63215	0.049913043
1874.70344	0.049695917
1872.77473	0.049670024
1870.84602	0.049496353
1868.91732	0.049305556
1866.98861	0.049237171
1865.0599	0.049160464
1863.1312	0.049109459
1861.20249	0.048894264
1859.27378	0.048852063
1857.34507	0.048637461
1855.41637	0.048423229
1853.48766	0.048389874
1851.55895	0.048176187
1849.63025	0.048143054
1847.70154	0.047962867
1845.77283	0.047799175
1843.84412	0.047766323
1841.91542	0.047684391
1839.98671	0.04743963
1838.058	0.047219846
1836.12929	0.047179487
1834.20059	0.047139197
1832.27188	0.046960383
1830.34317	0.046773643
1828.41447	0.046741726
1826.48576	0.046523517
1824.55705	0.046646238
1822.62834	0.046590716
1820.69964	0.046373365
1818.77093	0.046172127
1816.84222	0.045971162
1814.91351	0.04577823
1812.98481	0.045762712
1811.0561	0.045570049
1809.12739	0.045539191
1807.19869	0.045339198
1805.26998	0.045316199
1803.34127	0.045147109
1801.41256	0.044978018
1799.48386	0.04479378
1797.55515	0.044594595
1795.62644	0.044425676
1793.69774	0.044279196
1791.76903	0.044279196
1789.84032	0.044234341
1787.91161	0.044204488
1785.98291	0.044035769
1784.0542	0.043867049
1782.12549	0.043522267
1780.19678	0.043346264
1778.26808	0.043331647
1776.33937	0.04317032
1774.41066	0.043037975
1772.48196	0.042898159
1770.55325	0.04271484
1768.62454	0.042678812
1766.69583	0.042467139
1764.76713	0.042277244
1762.83842	0.042291491
1760.90971	0.042137199
1758.981	0.041807148
1757.0523	0.041659639
1755.12359	0.041525996
1753.19488	0.041427122
1751.26618	0.041511352
1749.33747	0.041383989
1747.40876	0.041235364
1745.48005	0.041086587
1743.55135	0.040965494
1741.62264	0.040680851
1739.69393	0.040715503
1737.76523	0.04057971
1735.83652	0.040464402
1733.90781	0.040321203
1731.9791	0.040081869
1730.0504	0.039823009
1728.12169	0.039755352
1726.19298	0.039694656
1724.26427	0.039640861
1722.33557	0.03943805
1720.40686	0.039268788
1718.47815	0.039099526
1716.54945	0.039053254
1714.62074	0.038779295
1712.69203	0.03866846
1710.76332	0.038590604
1708.83462	0.038377744
1706.90591	0.038352035
1704.9772	0.038146227
1703.04849	0.037972566
1701.11979	0.037811611
1699.19108	0.03776738
1697.26237	0.037685509
1695.33367	0.037603993
1693.40496	0.037338201
1691.47625	0.037276342
1689.54754	0.037092234
1687.61884	0.036938877
1685.69013	0.036975626
1683.76142	0.036809816
1681.83272	0.0367428
1679.90401	0.036522889
1677.9753	0.036345614
1676.04659	0.036351619
1674.11789	0.03617443
1672.18918	0.035991415
1670.26047	0.035832232
1668.33176	0.035637684
1666.40306	0.035590707
1664.47435	0.035420099
1662.54564	0.035249547
1660.61694	0.035226337
1658.68823	0.035050189
1656.75952	0.03493162
1654.83081	0.034699273
1652.90211	0.03456831
1650.9734	0.034664906
1649.04469	0.034460016
1647.11598	0.034460016
1645.18728	0.034261242
1643.25857	0.034040454
1641.32986	0.034018077
1639.40116	0.033711561
1637.47245	0.033591306
1635.54374	0.033437654
1633.61503	0.033388158
1631.68633	0.033338808
1629.75762	0.033163684
1627.82891	0.033004926
1625.90021	0.032851511
1623.9715	0.032692624
1622.04279	0.032681885
1620.11408	0.032671154
1618.18538	0.032517655
1616.25667	0.032342801
1614.32796	0.032300377
1612.39925	0.032273919
1610.47055	0.032104832
1608.54184	0.031941032
1606.61313	0.031766825
1604.68443	0.031756425
1602.75572	0.031582392
1600.82701	0.031403337
1598.8983	0.031393067
1596.9696	0.031377676
1595.04089	0.031198955
1593.11218	0.031173494
1591.18347	0.030984997
1589.25477	0.030796806
1587.32606	0.030766726
1585.39735	0.03057905
1583.46865	0.03038674
1581.53994	0.030204612
1579.61123	0.030037344
1577.68252	0.030047101
1575.75382	0.029865282
1573.82511	0.029821718
1571.8964	0.029635628
1569.96769	0.029459372
1568.03899	0.029269082
1566.11028	0.029069767
1564.18157	0.02889427
1562.25287	0.028926955
1560.32416	0.028821244
1558.39545	0.028663968
1556.46674	0.028599127
1554.53804	0.028364222
1552.60933	0.028323141
1550.68062	0.028304921
1548.75192	0.028135048
1546.82321	0.027987775
1544.8945	0.027858293
1542.96579	0.027741935
1541.03709	0.027593997
1539.10838	0.027549541
1537.17967	0.027474293
1535.25096	0.027274186
1533.32226	0.027256694
1531.39355	0.027065983
1529.46484	0.026888604
1527.53614	0.026737112
1525.60743	0.02659404
1523.67872	0.026623897
1521.75001	0.026484751
1519.82131	0.026311567
1517.8926	0.026282051
1515.96389	0.026100881
1514.03518	0.025932448
1512.10648	0.025936599
1510.17777	0.025801282
1508.24906	0.025669822
1506.32036	0.025493025
1504.39165	0.025431862
1502.46294	0.025387195
1500.53423	0.025231555
1498.60553	0.025095908
1496.67682	0.024936061
1494.74811	0.024920128
1492.81941	0.024920128
1490.8907	0.024620304
1488.96199	0.024468255
1487.03328	0.024292792
1485.10458	0.024113702
1483.17587	0.024106003
1481.24716	0.023954008
1479.31845	0.023813329
1477.38975	0.02368758
1475.46104	0.023412444
1473.53233	0.023289431
1471.60363	0.023143684
1469.67492	0.022986658
1467.74621	0.023001448
1465.8175	0.022705314
1463.8888	0.022712629
1461.96009	0.022558814
1460.03138	0.022433828
1458.10267	0.022315653
1456.17397	0.022150364
1454.24526	0.022103904
1452.31655	0.022071854
1450.38785	0.021903688
1448.45914	0.02173913
1446.53043	0.02156421
1444.60172	0.021543408
1442.67302	0.021372328
1440.74431	0.021054323
1438.8156	0.020920502
1436.8869	0.020776292
1434.95819	0.020762916
1433.02948	0.020585397
1431.10077	0.02042129
1429.17207	0.020424574
1427.24336	0.02026375
1425.31465	0.020112631
1423.38594	0.01997101
1421.45724	0.01984191
1419.52853	0.019712393
1417.59982	0.019557136
1415.67112	0.019547658
1413.74241	0.019389239
1411.8137	0.019243208
1409.88499	0.019096941
1407.95629	0.018950437
1406.02758	0.018806744
1404.09887	0.018656716
1402.17016	0.018506494
1400.24146	0.018356075
1398.31275	0.018202503
1396.38404	0.018202503
1394.45534	0.018028261
1392.52663	0.018007787
1390.59792	0.017836874
1388.66921	0.017680454
1386.74051	0.017686192
1384.8118	0.017677587
1382.88309	0.017506889
1380.95439	0.017336358
1379.02568	0.017171554
1377.09697	0.017009558
1375.16826	0.016853022
1373.23956	0.01668827
1371.31085	0.016520894
1369.38214	0.016353627
1367.45343	0.016189089
1365.52473	0.016189089
1363.59602	0.015867876
1361.66731	0.015860172
1359.73861	0.015844786
1357.8099	0.015670436
1355.88119	0.015501373
1353.95248	0.015332473
1352.02378	0.015163736
1350.09507	0.015153958
1348.16636	0.014983084
1346.23765	0.014973434
1344.30895	0.014805278
1342.38024	0.014641995
1340.45153	0.014641995
1338.52283	0.014474107
1336.59412	0.014301784
1334.66541	0.014127468
1332.7367	0.013955727
1330.808	0.01378647
1328.87929	0.013619612
1326.95058	0.013615249
1325.02188	0.013613069
1323.09317	0.013452915
1321.16446	0.01329489
1319.23575	0.013136815
1317.30705	0.012978689
1315.37834	0.012822568
1313.44963	0.012664315
1311.52092	0.012506013
1309.59222	0.012508018
1307.66351	0.01235162
1305.7348	0.012195122
1303.8061	0.012038523
1301.87739	0.011885641
1299.94868	0.011891371
1298.01997	0.011740109
1296.09127	0.011747667
1294.16256	0.01159607
1292.23385	0.011283043
1290.30514	0.011130828
1288.37644	0.010978366
1286.44773	0.010827408
1284.51902	0.010676157
1282.59032	0.01068999
1280.66161	0.010702124
1278.7329	0.010555375
1276.80419	0.010411583
1274.87549	0.010268949
1272.94678	0.00996732
1271.01807	0.009832842
1269.08937	0.009707141
1267.16066	0.009589947
1265.23195	0.009471585
1263.30324	0.009341118
1261.37454	0.009189641
1259.44583	0.00901352
1257.51712	0.008992506
1255.58841	0.008802524
1253.65971	0.008619261
1251.731	0.008612123
1249.80229	0.008612123
1247.87359	0.008452105
1245.94488	0.008459114
1244.01617	0.008302889
1242.08746	0.008146301
1240.15876	0.00815715
1238.23005	0.008002668
1236.30134	0.007847721
1234.37263	0.007693594
1232.44393	0.007537688
1230.51522	0.007381312
1228.58651	0.007392473
1226.65781	0.007235403
1224.7291	0.007247598
1222.80039	0.007259835
1220.87168	0.007104195
1218.94298	0.006777364
1217.01427	0.006790019
1215.08556	0.006462585
1213.15686	0.006475801
1211.22815	0.006318306
1209.29944	0.006332364
1207.37073	0.006346484
1205.44203	0.006188757
1203.51332	0.006030324
1201.58461	0.005870166
1199.6559	0.005710331
1197.7272	0.005723205
1195.79849	0.005562315
1193.86978	0.005574913
1191.94108	0.005761173
1190.01237	0.005598321
1188.08366	0.005611082
1186.15495	0.005449112
1184.22625	0.00528914
1182.29754	0.005306917
1180.36883	0.00514458
1178.44012	0.005154639
1176.51142	0.004984867
1174.58271	0.004994649
1172.654	0.005005363
1170.7253	0.005017022
1168.79659	0.004850009
1166.86788	0.004861361
1164.93917	0.004693141
1163.01047	0.004705031
1161.08176	0.004716126
1159.15305	0.004546281
1157.22435	0.004558716
1155.29564	0.00457122
1153.36693	0.004584632
1151.43822	0.004598124
1149.50952	0.004428044
1147.58081	0.004441977
1145.6521	0.004457652
1143.72339	0.004473439
1141.79469	0.004675519
1139.86598	0.004688672
1137.93727	0.0047019
1136.00857	0.004715202
1134.07986	0.004541154
1132.15115	0.004556674
1130.22244	0.004574042
1128.29374	0.004783773
1126.36503	0.004803997
1124.43632	0.004824392
1122.50761	0.0048459
1120.57891	0.004868549
1118.6502	0.004892368
1116.72149	0.004917388
1114.79279	0.004943642
1112.86408	0.005368861
1110.93537	0.0056
1109.00666	0.005633803
1107.07796	0.005668016
1105.14925	0.005906314
1103.22054	0.005941405
1101.29184	0.005974454
1099.36313	0.006209894
1097.43442	0.006443567
1095.50571	0.006465068
1093.57701	0.006691761
1091.6483	0.00691969
1089.71959	0.007148865
1087.79088	0.007383966
1085.86218	0.007410544
1083.93347	0.007651435
1082.00476	0.00789586
1080.07606	0.008140531
1078.14735	0.008604001
1076.21864	0.008633715
1074.28993	0.008659883
1072.36123	0.008899501
1070.43252	0.009138381
1068.50381	0.00959651
1066.5751	0.009838216
1064.6464	0.010081087
1062.71769	0.010327401
1060.78898	0.010572687
1058.86028	0.01081439
1056.93157	0.011049724
1055.00286	0.011278195
1053.07415	0.011725664
1051.14545	0.012173528
1049.21674	0.012624585
1047.28803	0.012851762
1045.35933	0.013303769
1043.43062	0.013756379
1041.50191	0.014212747
1039.5732	0.014447655
1037.6445	0.015131286
1035.71579	0.015364061
1033.78708	0.01582349
1031.85837	0.016280107
1029.92967	0.016733601
1028.00096	0.017183664
1026.07225	0.017622128
1024.14355	0.018275017
1022.21484	0.018922529
1020.28613	0.019346231
1018.35742	0.019986676
1016.42872	0.020620843
1014.50001	0.02124834
1012.5713	0.021868787
1010.64259	0.022266314
1008.71389	0.022877255
1006.78518	0.023276241
1004.85647	0.024112231
1002.92777	0.024748138
1000.99906	0.025607354
999.07035	0.026258206
997.14164	0.026908773
995.21294	0.027796017
993.28423	0.028684038
991.35552	0.029366645
989.42682	0.030289728
987.49811	0.031002639
985.5694	0.03172505
983.64069	0.032471836
981.71199	0.033237314
979.78328	0.034252669
977.85457	0.035068126
975.92586	0.035890534
973.99716	0.036936937
972.06845	0.037974684
970.13974	0.039011114
968.21104	0.039817975
966.28233	0.040848927
964.35362	0.04187643
962.42491	0.042680128
960.49621	0.043948458
958.5675	0.044772675
956.63879	0.045854562
954.71008	0.046954905
952.78138	0.047841307
950.85267	0.049003517
948.92396	0.050188501
946.99526	0.051184834
945.06655	0.052217454
943.13784	0.053048488
941.20913	0.054413543
939.28043	0.055596196
937.35172	0.056580566
935.42301	0.057859449
933.49431	0.058912008
931.5656	0.059984814
929.63689	0.061287028
927.70818	0.062339001
925.77948	0.063636364
923.85077	0.064938466
921.92206	0.066279377
919.99335	0.067376831
918.06465	0.068511553
916.13594	0.069685466
914.20723	0.071193866
912.27853	0.072219148
910.34982	0.073307219
908.42111	0.074440985
906.4924	0.075623031
904.5637	0.076833865
902.63499	0.078074552
900.70628	0.079252004
898.77757	0.080708071
896.84887	0.081842983
894.92016	0.08330781
892.99145	0.084520124
891.06275	0.085758998
889.13404	0.087052865
887.20533	0.088056356
885.27662	0.089407191
883.34792	0.090760157
881.41921	0.092144514
879.4905	0.093163539
877.5618	0.09448019
875.63309	0.095759234
873.70438	0.096963423
871.77567	0.098434783
869.84697	0.099544339
867.91826	0.101024373
865.98955	0.10252759
864.06084	0.10362137
862.13214	0.10473095
860.20343	0.105856675
858.27472	0.106959707
856.34602	0.10840708
854.41731	0.109502598
852.4886	0.110986547
850.55989	0.112114372
848.63119	0.113593336
846.70248	0.114666667
844.77377	0.115664496
842.84506	0.116673084
840.91636	0.118034056
838.98765	0.11940879
837.05894	0.120453657
835.13024	0.121462264
833.20153	0.122481233
831.27282	0.123412698
829.34411	0.124750897
827.41541	0.125750901
825.4867	0.126811594
823.55799	0.127883448
821.62929	0.129320862
819.70058	0.130363711
817.77187	0.131308986
815.84316	0.13231657
813.91446	0.132919255
811.98575	0.133999168
810.05704	0.135146444
808.12833	0.135828427
806.19963	0.136459654
804.27092	0.136980492
802.34221	0.137813696
800.41351	0.138533674
798.4848	0.139505119
796.55609	0.139991464
794.62738	0.140784983
792.69868	0.141151386
790.76997	0.141457179
788.84126	0.141702128
786.91255	0.141581633
784.98385	0.141521462
783.05514	0.141886151
781.12643	0.141825902
779.19773	0.14128129
777.26902	0.140797286
775.34031	0.140254237
773.4116	0.139712108
771.4829	0.139053254
769.55419	0.137974684
767.62548	0.136957438
765.69678	0.135942761
763.76807	0.134146341
761.83936	0.13282892
759.91065	0.131147541
757.98195	0.129466162
756.05324	0.127892301
754.12453	0.125526537
752.19582	0.12357655
750.26712	0.121673004
748.33841	0.119763013
746.4097	0.117946542
744.481	0.115695449
742.55229	0.113054608
740.62358	0.110873288
738.69487	0.108583691
736.76617	0.106758502
734.83746	0.104535637
732.90875	0.102341717
730.98004	0.100130605
729.05134	0.097902098
727.12263	0.095697981
725.19392	0.093956771
723.26522	0.091796009
721.33651	0.089612127
719.4078	0.087443946
717.47909	0.085662759
715.55039	0.084315503
713.62168	0.082991336
711.69297	0.081229922
709.76427	0.079409049
707.83556	0.077137546
705.90685	0.075304022
703.97814	0.073917137
702.04944	0.073020389
700.12073	0.071633238
698.19202	0.07022607
696.26331	0.06879845
694.33461	0.067871094
692.4059	0.066437008
690.47719	0.064980159
688.54849	0.0635
686.61978	0.062531518
684.69107	0.061608961
682.76236	0.06066838
680.83366	0.059647303
678.90495	0.058608059
676.97624	0.058078141
675.04753	0.058102345
673.11883	0.057619817
671.19012	0.056583243
669.26141	0.055525014
667.33271	0.054969461
665.404	0.054402692
663.47529	0.053824363
661.54658	0.053234116
659.61788	0.05205321
657.68917	0.051431911
655.76046	0.050827423
653.83176	0.050239234
651.90305	0.049576784
649.97434	0.049511002
648.04563	0.049413218
646.11693	0.049282595
644.18822	0.04845815
642.25951	0.047649301
640.3308	0.047466325
638.4021	0.046601942
636.47339	0.045751634
634.54468	0.045574637
632.61598	0.046122995
630.68727	0.046008119
628.75856	0.045236463
626.82985	0.045138889
624.90115	0.044334975
622.97244	0.044222539
621.04373	0.043352601
619.11502	0.042428676
617.18632	0.042159763
615.25761	0.041106129
613.3289	0.04147813
611.4002	0.041793313
609.47149	0.04058193
607.54278	0.040123457
605.61407	0.039688716
603.68537	0.039246468
601.75666	0.038827258
