4999.20917	0.712941176
4997.28046	0.711943794
4995.35176	0.712616822
4993.42305	0.710955711
4991.49434	0.711627907
4989.56564	0.709976798
4987.63693	0.710648148
4985.70822	0.712962963
4983.77951	0.713625866
4981.85081	0.714285714
4979.9221	0.712643678
4977.99339	0.713302752
4976.06468	0.71395881
4974.13598	0.714611872
4972.20727	0.712984055
4970.27856	0.715261959
4968.34986	0.713636364
4966.42115	0.714285714
4964.49244	0.714932127
4962.56373	0.715575621
4960.63503	0.713963964
4958.70632	0.714606742
4956.77761	0.715246637
4954.8489	0.715883669
4952.9202	0.714285714
4950.99149	0.714922049
4949.06278	0.715555556
4947.13408	0.716186253
4945.20537	0.716814159
4943.27666	0.715231788
4941.34795	0.715859031
4939.41925	0.716483516
4937.49054	0.714912281
4935.56183	0.715536105
4933.63313	0.716157205
4931.70442	0.716775599
4929.77571	0.717391304
4927.847	0.718004338
4925.9183	0.716450216
4923.98959	0.717062635
4922.06088	0.717672414
4920.13217	0.71827957
4918.20347	0.716738197
4916.27476	0.717344754
4914.34605	0.717948718
4912.41735	0.718550107
4910.48864	0.717021277
4908.55993	0.717622081
4906.63122	0.718220339
4904.70252	0.718816068
4902.77381	0.719409283
4900.8451	0.72
4898.91639	0.720588235
4896.98769	0.719077568
4895.05898	0.719665272
4893.13027	0.720250522
4891.20157	0.720833333
4889.27286	0.719334719
4887.34415	0.719917012
4885.41544	0.720496894
4883.48674	0.719587629
4881.55803	0.720164609
4879.62932	0.720164609
4877.70062	0.719262295
4875.77191	0.719836401
4873.8432	0.720408163
4871.91449	0.720977597
4869.98579	0.719512195
4868.05708	0.720081136
4866.12837	0.719191919
4864.19966	0.721212121
4862.27096	0.721774194
4860.34225	0.722334004
4858.41354	0.720883534
4856.48484	0.721442886
4854.55613	0.722
4852.62742	0.72255489
4850.69871	0.72166998
4848.77001	0.722222222
4846.8413	0.722772277
4844.91259	0.721343874
4842.98388	0.723320158
4841.05518	0.723865878
4839.12647	0.722986248
4837.19776	0.723529412
4835.26906	0.72407045
4833.34035	0.724609375
4831.41164	0.725146199
4829.48293	0.725680934
4827.55423	0.724271845
4825.62552	0.723404255
4823.69681	0.723938224
4821.76811	0.724470135
4819.8394	0.725
4817.91069	0.725527831
4815.98198	0.72605364
4814.05328	0.723282443
4812.12457	0.723809524
4810.19586	0.724334601
4808.26715	0.724857685
4806.33845	0.725378788
4804.40974	0.725897921
4802.48103	0.726415094
4800.55233	0.725047081
4798.62362	0.724202627
4796.69491	0.724719101
4794.7662	0.725233645
4792.8375	0.725746269
4790.90879	0.726256983
4788.98008	0.72541744
4787.05137	0.725925926
4785.12267	0.726432532
4783.19396	0.726937269
4781.26525	0.727440147
4779.33655	0.726605505
4777.40784	0.727106227
4775.47913	0.727605119
4773.55042	0.726277372
4771.62172	0.726775956
4769.69301	0.727272727
4767.7643	0.727767695
4765.8356	0.72826087
4763.90689	0.727436823
4761.97818	0.727927928
4760.04947	0.726618705
4758.12077	0.727109515
4756.19206	0.729390681
4754.26335	0.729874776
4752.33464	0.729055258
4750.40594	0.729537367
4748.47723	0.728723404
4746.54852	0.72920354
4744.61982	0.727915194
4742.69111	0.728395062
4740.7624	0.728873239
4738.83369	0.729349736
4736.90499	0.729824561
4734.97628	0.729020979
4733.04757	0.729493892
4731.11886	0.728695652
4729.19016	0.729166667
4727.26145	0.729636049
4725.33274	0.730103806
4723.40404	0.730569948
4721.47533	0.731034483
4719.54662	0.73024055
4717.61791	0.730703259
4715.68921	0.731164384
4713.7605	0.730375427
4711.83179	0.730834753
4709.90308	0.731292517
4707.97438	0.731748727
4706.04567	0.73220339
4704.11696	0.732656514
4702.18826	0.731871838
4700.25955	0.732323232
4698.33084	0.731543624
4696.40213	0.7319933
4694.47343	0.732441472
4692.54472	0.731666667
4690.61601	0.732113145
4688.68731	0.73255814
4686.7586	0.734660033
4684.82989	0.732231405
4682.90118	0.732673267
4680.97248	0.733113674
4679.04377	0.732348112
4677.11506	0.732786885
4675.18635	0.733224223
4673.25765	0.733660131
4671.32894	0.734094617
4669.40023	0.733333333
4667.47153	0.73538961
4665.54282	0.734627832
4663.61411	0.735056543
4661.6854	0.733870968
4659.7567	0.734299517
4657.82799	0.734726688
4655.89928	0.735576923
4653.97057	0.736
4652.04187	0.735247209
4650.11316	0.73566879
4648.18445	0.73608903
4646.25575	0.735340729
4644.32704	0.734597156
4642.39833	0.735015773
4640.46962	0.737007874
4638.54092	0.737421384
4636.61221	0.735109718
4634.6835	0.735524257
4632.7548	0.7359375
4630.82609	0.735202492
4628.89738	0.737169518
4626.96867	0.736434109
4625.03997	0.736842105
4623.11126	0.736111111
4621.18255	0.73651772
4619.25384	0.736923077
4617.32514	0.737327189
4615.39643	0.736600306
4613.46772	0.735877863
4611.53902	0.736280488
4609.61031	0.736681887
4607.6816	0.738601824
4605.75289	0.737878788
4603.82419	0.73827534
4601.89548	0.737556561
4599.96677	0.737951807
4598.03806	0.739849624
4596.10936	0.739130435
4594.18065	0.739520958
4592.25194	0.73880597
4590.32324	0.739195231
4588.39453	0.739583333
4586.46582	0.738872404
4584.53711	0.739259259
4582.60841	0.738552437
4580.6797	0.740412979
4578.75099	0.740795287
4576.82229	0.740088106
4574.89358	0.740469208
4572.96487	0.739766082
4571.03616	0.740145985
4569.10746	0.740902475
4567.17875	0.74127907
4565.25004	0.739130435
4563.32133	0.740955137
4561.39263	0.74132948
4559.46392	0.740634006
4557.53521	0.742446043
4555.60651	0.741750359
4553.6778	0.742120344
4551.74909	0.741428571
4549.82038	0.741797432
4547.89168	0.742165242
4545.96297	0.741477273
4544.03426	0.741843972
4542.10555	0.742574257
4540.17685	0.742937853
4538.24814	0.742253521
4536.31943	0.742616034
4534.39073	0.741935484
4532.46202	0.743697479
4530.53331	0.744055944
4528.6046	0.743375174
4526.6759	0.743732591
4524.74719	0.744444444
4522.81848	0.74479889
4520.88978	0.744121715
4518.96107	0.743448276
4517.03236	0.743801653
4515.10365	0.744505495
4513.17495	0.744855967
4511.24624	0.744186047
4509.31753	0.744535519
4507.38882	0.74386921
4505.46012	0.744217687
4503.53141	0.743554953
4501.6027	0.743902439
4499.674	0.744594595
4497.74529	0.744939271
4495.81658	0.745625841
4493.88787	0.745967742
4491.95917	0.745308311
4490.03046	0.745649264
4488.10175	0.746328438
4486.17304	0.746666667
4484.24434	0.746010638
4482.31563	0.746347942
4480.38692	0.745695364
4478.45822	0.746367239
4476.52951	0.746701847
4474.6008	0.746052632
4472.67209	0.746386334
4470.74339	0.747051114
4468.81468	0.746405229
4466.88597	0.746736292
4464.95727	0.74609375
4463.02856	0.747724317
4461.09985	0.747081712
4459.17114	0.747409326
4457.24244	0.748062016
4455.31373	0.748387097
4453.38502	0.747747748
4451.45631	0.748071979
4449.52761	0.748717949
4447.5989	0.748081841
4445.67019	0.748403576
4443.74149	0.747770701
4441.81278	0.748091603
4439.88407	0.748730964
4437.95536	0.74904943
4436.02666	0.749683944
4434.09795	0.749054224
4432.16924	0.749370277
4430.24053	0.75
4428.31183	0.749373434
4426.38312	0.749687109
4424.45441	0.74906367
4422.52571	0.749376559
4420.597	0.75
4418.66829	0.750310559
4416.73958	0.750929368
4414.81088	0.750309023
4412.88217	0.749691739
4410.95346	0.750307503
4409.02476	0.750614251
4407.09605	0.75
4405.16734	0.751529988
4403.23863	0.750915751
4401.30993	0.752439024
4399.38122	0.751824818
4397.45251	0.751213592
4395.5238	0.752727273
4393.5951	0.752116082
4391.66639	0.752415459
4389.73768	0.753012048
4387.80898	0.752403846
4385.88027	0.753901561
4383.95156	0.753293413
4382.02285	0.752688172
4380.09415	0.752983294
4378.16544	0.753571429
4376.23673	0.753864447
4374.30802	0.754448399
4372.37932	0.753846154
4370.45061	0.754427391
4368.5219	0.753828033
4366.5932	0.754117647
4364.66449	0.754694836
4362.73578	0.754098361
4360.80707	0.753504673
4358.87837	0.754079254
4356.94966	0.753488372
4355.02095	0.753774681
4353.09225	0.754345307
4351.16354	0.753757225
4349.23483	0.755196305
4347.30612	0.754608295
4345.37742	0.754890679
4343.44871	0.755453502
4341.52	0.75486827
4339.59129	0.755428571
4337.66259	0.754846066
4335.73388	0.756264237
4333.80517	0.755681818
4331.87647	0.755102041
4329.94776	0.755656109
4328.01905	0.757062147
4326.09034	0.756482525
4324.16164	0.757030371
4322.23293	0.756453423
4320.30422	0.756726457
4318.37551	0.757270694
4316.44681	0.756696429
4314.5181	0.757238307
4312.58939	0.756666667
4310.66069	0.757206208
4308.73198	0.757475083
4306.80327	0.75801105
4304.87456	0.757442117
4302.94586	0.757975798
4301.01715	0.758241758
4299.08844	0.75877193
4297.15974	0.758205689
4295.23103	0.758733624
4293.30232	0.758169935
4291.37361	0.758695652
4289.44491	0.758957655
4287.5162	0.759479957
4285.58749	0.758918919
4283.65878	0.758360302
4281.73008	0.759698276
4279.80137	0.759139785
4277.87266	0.759656652
4275.94396	0.759100642
4274.01525	0.759615385
4272.08654	0.759061834
4270.15783	0.759574468
4268.22913	0.759829968
4266.30042	0.760339343
4264.37171	0.75978836
4262.443	0.760295671
4260.5143	0.760800843
4258.58559	0.760252366
4256.65688	0.760755509
4254.72818	0.760209424
4252.79947	0.760710554
4250.87076	0.760960334
4248.94205	0.761458333
4247.01335	0.761706556
4245.08464	0.762201454
4243.15593	0.762694301
4241.22723	0.763185109
4239.29852	0.76185567
4237.36981	0.762345679
4235.4411	0.762589928
4233.5124	0.762051282
4231.58369	0.762538383
4229.65498	0.762002043
4227.72627	0.762487258
4225.79757	0.762970498
4223.86886	0.763451777
4221.94015	0.763931104
4220.01145	0.76417004
4218.08274	0.763636364
4216.15403	0.764112903
4214.22532	0.764587525
4212.29662	0.765060241
4210.36791	0.764529058
4208.4392	0.764764765
4206.51049	0.764471058
4204.58179	0.763944223
4202.65308	0.764413519
4200.72437	0.763888889
4198.79567	0.764356436
4196.86696	0.764822134
4194.93825	0.765285996
4193.00954	0.76476378
4191.08084	0.765978368
4189.15213	0.766437684
4187.22342	0.765915769
4185.29472	0.766373412
4183.36601	0.765853659
4181.4373	0.76705653
4179.50859	0.766763848
4177.57989	0.766246363
4175.65118	0.766698935
4173.72247	0.766183575
4171.79376	0.766634523
4169.86506	0.767083734
4167.93635	0.76753122
4166.00764	0.766283525
4164.07894	0.766730402
4162.15023	0.767908309
4160.22152	0.767397521
4158.29281	0.767840152
4156.36411	0.768281102
4154.4354	0.767772512
4152.50669	0.768211921
4150.57798	0.768649669
4148.64928	0.769085768
4146.72057	0.768579492
4144.79186	0.768292683
4142.86316	0.767790262
4140.93445	0.768224299
4139.00574	0.767723881
4137.07703	0.768156425
4135.14833	0.768587361
4133.21962	0.769016698
4131.29091	0.769444444
4129.36221	0.770582794
4127.4335	0.770083102
4125.50479	0.770506912
4123.57608	0.769301471
4121.64738	0.769724771
4119.71867	0.77014652
4117.78996	0.770566728
4115.86125	0.770072993
4113.93255	0.770491803
4112.00384	0.770909091
4110.07513	0.771324864
4108.14643	0.771040724
4106.21772	0.770551039
4104.28901	0.770964833
4102.3603	0.771377138
4100.4316	0.770889488
4098.50289	0.771300448
4096.57418	0.771709937
4094.64547	0.772117962
4092.71677	0.772524532
4090.78806	0.772039181
4088.85935	0.772444444
4086.93065	0.772163121
4085.00194	0.772566372
4083.07323	0.772968198
4081.14452	0.773368607
4079.21582	0.772887324
4077.28711	0.773286467
4075.3584	0.773684211
4073.4297	0.773204904
4071.50099	0.773601399
4069.57228	0.77399651
4067.64357	0.773716275
4065.71487	0.77410947
4063.78616	0.773633998
4061.85745	0.774025974
4059.92874	0.773747841
4058.00004	0.774137931
4056.07133	0.774526678
4054.14262	0.774248927
4052.21392	0.775300172
4050.28521	0.775684932
4048.3565	0.775213675
4046.42779	0.77559727
4044.49909	0.775319149
4042.57038	0.775700935
4040.64167	0.775233249
4038.71296	0.775613887
4036.78426	0.775337838
4034.85555	0.776559865
4032.92684	0.776094276
4030.99814	0.776470588
4029.06943	0.775356245
4027.14072	0.775732218
4025.21201	0.776106934
4023.28331	0.7764804
4021.3546	0.776206323
4019.42589	0.775747508
4017.49719	0.776119403
4015.56848	0.777317881
4013.63977	0.77768595
4011.71106	0.777411377
4009.78236	0.776954733
4007.85365	0.777321282
4005.92494	0.77704918
4003.99623	0.777414075
4002.06753	0.777777778
4000.13882	0.777506112
3998.21011	0.777868186
3996.28141	0.778229082
3994.3527	0.778588808
3992.42399	0.778947368
3990.49528	0.778496362
3988.56658	0.778853914
3986.63787	0.778582931
3984.70916	0.778938907
3982.78045	0.77947073
3980.85175	0.779823859
3978.92304	0.780175859
3976.99433	0.779728651
3975.06563	0.780079681
3973.13692	0.779809221
3971.20821	0.78015873
3969.2795	0.779889153
3967.3508	0.780237154
3965.42209	0.780584057
3963.49338	0.780929866
3961.56468	0.780660377
3959.63597	0.78100471
3957.70726	0.781347962
3955.77855	0.781078968
3953.84985	0.780640125
3951.92114	0.780982073
3949.99243	0.780544747
3948.06372	0.781662782
3946.13502	0.781395349
3944.20631	0.781733746
3942.2776	0.781467181
3940.3489	0.781972265
3938.42019	0.78170638
3936.49148	0.782041443
3934.56277	0.782208589
3932.63407	0.781776417
3930.70536	0.782276547
3928.77665	0.782608696
3926.84794	0.782343988
3924.91924	0.782674772
3922.99053	0.783004552
3921.06182	0.783333333
3919.13312	0.78290469
3917.20441	0.783232628
3915.2757	0.783885542
3913.34699	0.783783784
3911.41829	0.783520599
3909.48958	0.783096485
3907.56087	0.783096485
3905.63217	0.782934132
3903.70346	0.783096485
3901.77475	0.783420463
3899.84604	0.784065525
3897.91734	0.784866469
3895.98863	0.784763314
3894.05992	0.785081241
3892.13121	0.784660767
3890.20251	0.784977909
3888.2738	0.785294118
3886.34509	0.78471712
3884.41639	0.784457478
3882.48768	0.784930505
3880.55897	0.78540146
3878.63026	0.785298399
3876.70156	0.785766158
3874.77285	0.785195936
3872.84414	0.785921626
3870.91543	0.786076867
3868.98673	0.785817656
3867.05802	0.786435786
3865.12931	0.786177106
3863.20061	0.786637931
3861.2719	0.786532951
3859.34319	0.786990708
3857.41448	0.786123033
3855.48578	0.785509326
3853.55707	0.785663082
3851.62836	0.786885246
3849.69966	0.788093551
3847.77095	0.788135593
3845.84224	0.788285109
3843.91353	0.787729196
3841.98483	0.787878788
3840.05612	0.787323944
3838.12741	0.787623066
3836.1987	0.788218794
3834.27	0.788111888
3832.34129	0.789253315
3830.41258	0.78914405
3828.48388	0.788888889
3826.55517	0.788634789
3824.62646	0.789327789
3822.69775	0.789327789
3820.76905	0.788927336
3818.84034	0.789510007
3816.91163	0.789944904
3814.98292	0.78997941
3813.05422	0.790697674
3811.12551	0.79112628
3809.1968	0.79112628
3807.2681	0.79072938
3805.33939	0.79033356
3803.41068	0.791156463
3801.48197	0.79076087
3799.55327	0.791327913
3797.62456	0.791891892
3795.69585	0.791778976
3793.76715	0.79233871
3791.83844	0.792225201
3789.90973	0.791973244
3787.98102	0.792251169
3786.05232	0.792528352
3784.12361	0.792276964
3782.1949	0.792553191
3780.26619	0.79269103
3778.33749	0.792577866
3776.40878	0.793126239
3774.48007	0.792875989
3772.55137	0.793012525
3770.62266	0.79314888
3768.69395	0.792899408
3766.76524	0.793963255
3764.83654	0.794368042
3762.90783	0.794117647
3760.97912	0.793733681
3759.05041	0.794002608
3757.12171	0.793754066
3755.193	0.793888166
3753.26429	0.793619792
3751.33559	0.793619792
3749.40688	0.79337232
3747.47817	0.793125811
3745.54946	0.792477302
3743.62076	0.793148028
3741.69205	0.794212219
3739.76334	0.794740218
3737.83464	0.793966624
3735.90593	0.793457344
3733.97722	0.79462572
3732.04851	0.79541109
3730.11981	0.796190476
3728.1911	0.795944233
3726.26239	0.79556962
3724.33368	0.795325332
3722.40498	0.795712484
3720.47627	0.796226415
3718.54756	0.796110414
3716.61886	0.796992481
3714.69015	0.796992481
3712.76144	0.796365915
3710.83273	0.796122577
3708.90403	0.796884735
3706.97532	0.797515528
3705.04661	0.798387097
3703.1179	0.798017348
3701.1892	0.798267327
3699.26049	0.798272671
3697.33178	0.79864532
3695.40308	0.798892989
3693.47437	0.798892989
3691.54566	0.798277983
3689.61695	0.798401967
3687.68825	0.799019608
3685.75954	0.7997558
3683.83083	0.7991479
3681.90213	0.799392097
3679.97342	0.799392097
3678.04471	0.7986618
3676.116	0.7991479
3674.1873	0.799513973
3672.25859	0.8
3670.32988	0.799758016
3668.40117	0.800361882
3666.47247	0.800600601
3664.54376	0.80107849
3662.61505	0.801316577
3660.68635	0.800956366
3658.75764	0.801554094
3656.82893	0.801075269
3654.90022	0.800834824
3652.97152	0.800834824
3651.04281	0.800597015
3649.1141	0.800119332
3647.18539	0.800832342
3645.25669	0.801540284
3643.32798	0.802126403
3641.39927	0.802476415
3639.47057	0.802709069
3637.54186	0.802352941
3635.61315	0.80199765
3633.68444	0.802585194
3631.75574	0.801881246
3629.82703	0.80223661
3627.89832	0.802230047
3625.96961	0.802923977
3624.04091	0.803383897
3622.1122	0.803383897
3620.18349	0.802800467
3618.25479	0.802447552
3616.32608	0.802210588
3614.39737	0.802440442
3612.46866	0.802555168
3610.53996	0.802669762
3608.61125	0.803012746
3606.68254	0.804046243
3604.75384	0.80449827
3602.82513	0.804147465
3600.89642	0.803797468
3598.96771	0.804022989
3597.03901	0.804247991
3595.1103	0.804472477
3593.18159	0.804696449
3591.25288	0.804347826
3589.32418	0.803775744
3587.39547	0.803428571
3585.46676	0.804446978
3583.53806	0.805460751
3581.60935	0.80625
3579.68064	0.805902384
3577.75193	0.805555556
3575.82323	0.805319751
3573.89452	0.806105144
3571.96581	0.806214689
3570.0371	0.805649718
3568.1084	0.805084746
3566.17969	0.804850536
3564.25098	0.80585256
3562.32228	0.806741573
3560.39357	0.806505889
3558.46486	0.806722689
3556.53615	0.806939004
3554.60745	0.80704698
3552.67874	0.80726257
3550.75003	0.806919643
3548.82133	0.807134894
3546.89262	0.80724234
3544.96391	0.807007786
3543.0352	0.807884509
3541.1065	0.808652246
3539.17779	0.808864266
3537.24908	0.808522413
3535.32037	0.808287293
3533.39167	0.80794702
3531.46296	0.808052951
3529.53425	0.808158765
3527.60555	0.808815427
3525.67684	0.808475509
3523.74813	0.808686091
3521.81942	0.809001098
3519.89072	0.809210526
3517.96201	0.809419496
3516.0333	0.809628009
3514.10459	0.809393774
3512.17589	0.809056192
3510.24718	0.809264305
3508.31847	0.809471965
3506.38977	0.809679173
3504.46106	0.809782609
3502.53235	0.809549647
3500.60364	0.810298103
3498.67494	0.810064935
3496.74623	0.81027027
3494.81752	0.810475162
3492.88882	0.810679612
3490.96011	0.810883621
3489.0314	0.810548977
3487.10269	0.810752688
3485.17399	0.810520666
3483.24528	0.810723861
3481.31657	0.811462239
3479.38786	0.811229947
3477.45916	0.811431624
3475.53045	0.811632871
3473.60174	0.811933937
3471.67304	0.812134114
3469.74433	0.812433581
3467.81562	0.812632696
3465.88691	0.812400636
3463.95821	0.812599259
3462.0295	0.812367865
3460.10079	0.812664908
3458.17208	0.812862414
3456.24338	0.813157895
3454.31467	0.812926957
3452.38596	0.81312336
3450.45726	0.81331935
3448.52855	0.813514929
3446.59984	0.813284519
3444.67113	0.81400209
3442.74243	0.814293166
3440.81372	0.8140625
3438.88501	0.813832553
3436.95631	0.814122534
3435.0276	0.813893209
3433.09889	0.814182195
3431.17018	0.814470284
3429.24148	0.814241486
3427.31277	0.815043792
3425.38406	0.815329218
3423.45535	0.815613765
3421.52665	0.815384615
3419.59794	0.815668203
3417.66923	0.815022994
3415.74053	0.815306122
3413.81182	0.815588385
3411.88311	0.815776081
3409.9544	0.81554878
3408.0257	0.816243655
3406.09699	0.816523061
3404.16828	0.816295547
3402.23957	0.816574027
3400.31087	0.816851665
3398.38216	0.817128463
3396.45345	0.816993464
3394.52475	0.817269076
3392.59604	0.817134269
3390.66733	0.8175
3388.73862	0.817365269
3386.80992	0.817638266
3384.88121	0.817910448
3382.9525	0.818181818
3381.0238	0.818046604
3379.09509	0.817821782
3377.16638	0.818091943
3375.23767	0.818361303
3373.30897	0.818226601
3371.38026	0.818494835
3369.45155	0.81827112
3367.52284	0.818538499
3365.59414	0.818805093
3363.66543	0.818581907
3361.73672	0.818448023
3359.80802	0.81871345
3357.87931	0.81946472
3355.9506	0.819727891
3354.02189	0.819107662
3352.09319	0.81937046
3350.16448	0.819632495
3348.23577	0.819893771
3346.30706	0.820154291
3344.37836	0.820019249
3342.44965	0.820278712
3340.52094	0.820057582
3338.59224	0.820316243
3336.66353	0.820574163
3334.73482	0.820439351
3332.80611	0.820696233
3330.87741	0.820952381
3328.9487	0.82081749
3327.01999	0.821072615
3325.09129	0.821327014
3323.16258	0.821580691
3321.23387	0.821445442
3319.30516	0.821698113
3317.37646	0.821950071
3315.44775	0.822201317
3313.51904	0.822065728
3311.59033	0.821930647
3309.66163	0.821796071
3307.73292	0.822045773
3305.80421	0.822761194
3303.87551	0.823091248
3301.9468	0.82295539
3300.01809	0.822820037
3298.08938	0.823066234
3296.16068	0.822931114
3294.23197	0.823176362
3292.30326	0.823041475
3290.37455	0.82328578
3288.44585	0.823610473
3286.51714	0.824311927
3284.58843	0.824175824
3282.65973	0.82441701
3280.73102	0.824737563
3278.80231	0.824601367
3276.8736	0.824465666
3274.9449	0.824330458
3273.01619	0.824569356
3271.08748	0.824434389
3269.15878	0.824751581
3267.23007	0.825439783
3265.30136	0.825303917
3263.37265	0.825539568
3261.44395	0.82540395
3259.51524	0.825268817
3257.58653	0.825950783
3255.65782	0.825815096
3253.72912	0.826048171
3251.80041	0.825912734
3249.8717	0.826222222
3247.943	0.826453617
3246.01429	0.826684397
3244.08558	0.826548673
3242.15687	0.826855124
3240.22817	0.827084252
3238.29946	0.826948481
3236.37075	0.827252747
3234.44204	0.827117157
3232.51334	0.827420061
3230.58463	0.827284652
3228.65592	0.827510917
3226.72722	0.827811683
3224.79851	0.82767624
3222.8698	0.827900913
3220.94109	0.828199566
3219.01239	0.828064097
3217.08368	0.828361435
3215.15497	0.828226155
3213.22627	0.828448276
3211.29756	0.828743546
3209.36885	0.828608247
3207.44014	0.828546935
3205.51144	0.829195205
3203.58273	0.829487179
3201.65402	0.829351536
3199.72531	0.829569663
3197.79661	0.829859634
3195.8679	0.829723992
3193.93919	0.830012717
3192.01049	0.829877275
3190.08178	0.830164766
3188.15307	0.830379747
3186.22436	0.830665543
3184.29566	0.830529857
3182.36695	0.830814442
3180.43824	0.831098072
3178.50953	0.830962343
3176.58083	0.831244779
3174.65212	0.831109258
3172.72341	0.831390508
3170.79471	0.831255195
3168.866	0.831880448
3166.93729	0.831744716
3165.00858	0.832023169
3163.07988	0.832300702
3161.15117	0.832164948
3159.22246	0.832441334
3157.29376	0.832716811
3155.36505	0.832991383
3153.43634	0.832855387
3151.50763	0.832719836
3149.57893	0.832993058
3147.65022	0.83360522
3145.72151	0.833469055
3143.7928	0.833739837
3141.8641	0.83400974
3139.93539	0.833535844
3138.00668	0.834142395
3136.07798	0.834410339
3134.14927	0.834274194
3132.22056	0.834541063
3130.29185	0.834471675
3128.36315	0.834737264
3126.43444	0.834935897
3124.50573	0.8352
3122.57702	0.835463259
3120.64832	0.835725678
3118.71961	0.835256665
3116.7909	0.835518474
3114.8622	0.835779453
3112.93349	0.835643564
3111.00478	0.835903519
3109.07607	0.836162653
3107.14737	0.836091411
3105.21866	0.836349331
3103.28995	0.836935167
3101.36125	0.837191055
3099.43254	0.837054446
3097.50383	0.836982017
3095.57512	0.837236534
3093.64642	0.837490257
3091.71771	0.837743191
3089.789	0.837606838
3087.86029	0.837533928
3085.93159	0.837785521
3084.00288	0.838360402
3082.07417	0.838610039
3080.14547	0.8384734
3078.21676	0.838399384
3076.28805	0.838647714
3074.35934	0.83857362
3072.43064	0.838820827
3070.50193	0.839067278
3068.57322	0.839251623
3066.64451	0.839496759
3064.71581	0.839360487
3062.7871	0.839604713
3060.85839	0.83952959
3058.92969	0.839772727
3057.00098	0.840015129
3055.07227	0.8399396
3053.14356	0.840180927
3051.21486	0.840421528
3049.28615	0.840977444
3047.35744	0.841216216
3045.42874	0.84107946
3043.50003	0.841317365
3041.57132	0.841554559
3039.64261	0.84141791
3037.71391	0.841713222
3035.7852	0.84194868
3033.85649	0.841812105
3031.92778	0.84235905
3029.99908	0.842222222
3028.07037	0.842455621
3026.14166	0.842688331
3024.21296	0.842551622
3022.28425	0.842725599
3020.35554	0.842956969
3018.42683	0.842820419
3016.49813	0.843360235
3014.56942	0.843223443
3012.64071	0.843087052
3010.712	0.843624406
3008.7833	0.84379562
3006.85459	0.843658892
3004.92588	0.843829632
3002.99718	0.844363636
3001.06847	0.844533236
2999.13976	0.844339623
2997.21105	0.844452502
2995.28235	0.844927536
2993.35364	0.845039826
2991.42493	0.845151954
2989.49623	0.845207957
2987.56752	0.845263919
2985.63881	0.845625452
2983.7101	0.845625452
2981.7814	0.845625452
2979.85269	0.846237337
2977.92398	0.846125996
2975.99527	0.846627991
2974.06657	0.846712677
2972.13786	0.847105934
2970.20915	0.847080292
2968.28045	0.847054519
2966.35174	0.847140762
2964.42303	0.847395451
2962.49432	0.847507331
2960.56562	0.847476225
2958.63691	0.847921225
2956.7082	0.848110465
2954.77949	0.847991314
2952.85079	0.848178868
2950.92208	0.847951114
2948.99337	0.848332736
2947.06467	0.848604152
2945.13596	0.848766536
2943.20725	0.848874598
2941.27854	0.848874598
2939.34984	0.848874598
2937.42113	0.848820586
2935.49242	0.848820586
2933.56372	0.848874598
2931.63501	0.849285714
2929.7063	0.849447021
2927.77759	0.849305308
2925.84889	0.849573257
2923.92018	0.849592054
2921.99147	0.850017687
2920.06276	0.850141044
2918.13406	0.849964863
2916.20535	0.850087566
2914.27664	0.850209497
2912.34794	0.850330665
2910.41923	0.850399167
2908.49052	0.85105646
2906.56181	0.851071182
2904.63311	0.85137931
2902.7044	0.851393189
2900.77569	0.851407001
2898.84698	0.851420746
2896.91828	0.851725316
2894.98957	0.851687692
2893.06086	0.851990473
2891.13216	0.852241848
2889.20345	0.85249237
2887.27474	0.852403521
2885.34603	0.852553263
2883.41733	0.853040541
2881.48862	0.852851839
2879.55991	0.852951096
2877.63121	0.853000674
2875.7025	0.85309973
2873.77379	0.853248065
2871.84508	0.853494624
2869.91638	0.853740356
2867.98767	0.853985265
2866.05896	0.853895018
2864.13025	0.85375626
2862.20155	0.854236157
2860.27284	0.854097268
2858.34413	0.854575707
2856.41543	0.85448505
2854.48672	0.854394693
2852.55801	0.85468388
2850.6293	0.854737537
2848.7006	0.85483871
2846.77189	0.855267476
2844.84318	0.855366492
2842.91447	0.855417755
2840.98577	0.855747314
2839.05706	0.855750487
2837.12835	0.855753647
2835.19965	0.855710126
2833.27094	0.85626615
2831.34223	0.856497904
2829.41352	0.856728912
2827.48482	0.856959177
2825.55611	0.856867779
2823.6274	0.857097084
2821.6987	0.85728
2819.76999	0.857782039
2817.84128	0.857370772
2815.91257	0.857279388
2813.98387	0.857461024
2812.05516	0.857369759
2810.12645	0.85786802
2808.19774	0.858048162
2806.26904	0.858227848
2804.34033	0.85840708
2802.41162	0.858585859
2800.48292	0.859079445
2798.55421	0.858986465
2796.6255	0.859163785
2794.69679	0.859070935
2792.76809	0.859247649
2790.83938	0.85942392
2788.91067	0.85959975
2786.98196	0.859506712
2785.05326	0.859681946
2783.12455	0.859856742
2781.19584	0.860031104
2779.26714	0.859937888
2777.33843	0.860688799
2775.40972	0.860594796
2773.48101	0.860457921
2771.55231	0.860630408
2769.6236	0.860802469
2767.69489	0.860974106
2765.76619	0.86114532
2763.83748	0.861316113
2761.90877	0.861486486
2759.98006	0.861656442
2758.05136	0.86182598
2756.12265	0.861995104
2754.19394	0.862163814
2752.26523	0.862026862
2750.33653	0.8625
2748.40782	0.862667479
2746.47911	0.86283455
2744.55041	0.863001215
2742.6217	0.863167476
2740.69299	0.863333333
2738.76428	0.863196126
2736.83558	0.863361548
2734.90687	0.86352657
2732.97816	0.863691194
2731.04945	0.863855422
2729.12075	0.864019254
2727.19204	0.864182692
2725.26333	0.864345738
2723.33463	0.864249326
2721.40592	0.864411853
2719.47721	0.864275037
2717.5485	0.864437145
2715.6198	0.864598867
2713.69109	0.864760203
2711.76238	0.864921154
2709.83368	0.865081724
2707.90497	0.865241912
2705.97626	0.86540172
2704.04755	0.865561149
2702.11885	0.866015972
2700.19014	0.866174298
2698.26143	0.866332251
2696.33272	0.866489832
2694.40402	0.866352664
2692.47531	0.86650985
2690.5466	0.866666667
2688.6179	0.866823115
2686.68919	0.866979197
2684.76048	0.867134914
2682.83177	0.867036821
2680.90307	0.867192061
2678.97436	0.867346939
2677.04565	0.867501456
2675.11694	0.867655614
2673.18824	0.867809413
2671.25953	0.867962855
2669.33082	0.868115942
2667.40212	0.868268674
2665.47341	0.868672259
2663.5447	0.868573079
2661.61599	0.868724755
2659.68729	0.868876081
2657.75858	0.869027058
2655.82987	0.869177688
2653.90117	0.869040781
2651.97246	0.869477912
2650.04375	0.869627507
2648.11504	0.86977676
2646.18634	0.869677051
2644.25763	0.869825864
2642.32892	0.869974337
2640.40021	0.869837653
2638.47151	0.869985775
2636.5428	0.870380898
2634.61409	0.870528109
2632.68539	0.870674986
2630.75668	0.871104816
2628.82797	0.871250707
2626.89926	0.871396269
2624.97056	0.871541502
2623.04185	0.871440654
2621.11314	0.871585469
2619.18443	0.871448664
2617.25573	0.871593144
2615.32702	0.8717373
2613.39831	0.87216148
2611.46961	0.87206047
2609.5409	0.872447552
2607.61219	0.872310701
2605.68348	0.872488839
2603.75478	0.872630992
2601.82607	0.872772829
2599.89736	0.872914349
2597.96865	0.873298138
2596.03995	0.873438801
2594.11124	0.873579152
2592.18253	0.873477298
2590.25383	0.873617257
2588.32512	0.873756906
2586.39641	0.874172185
2584.4677	0.874310915
2582.539	0.874208643
2580.61029	0.874621941
2578.68158	0.874759681
2576.75288	0.874897119
2574.82417	0.875034256
2572.89546	0.875171092
2570.96675	0.87479497
2569.03805	0.875204806
2567.10934	0.875340971
2565.18063	0.875476839
2563.25192	0.875612412
2561.32322	0.875747689
2559.39451	0.875882672
2557.4658	0.87628866
2555.5371	0.876185316
2553.60839	0.87631935
2551.67968	0.876453095
2549.75097	0.876586551
2547.82227	0.876483279
2545.89356	0.876616379
2543.96485	0.876749193
2542.03614	0.877150538
2540.10744	0.877282492
2538.17873	0.877682403
2536.25002	0.877813505
2534.32132	0.877709393
2532.39261	0.87784015
2530.4639	0.877736252
2528.53519	0.877866667
2526.60649	0.878263186
2524.67778	0.878392762
2522.74907	0.878522063
2520.82037	0.878651089
2518.89166	0.878779841
2516.96295	0.878675497
2515.03424	0.878803916
2513.10554	0.879196405
2511.17683	0.879324003
2509.24812	0.879451332
2507.31941	0.879841897
2505.39071	0.879705186
2503.462	0.879863302
2501.53329	0.879989496
2499.60459	0.880115425
2497.67588	0.880010479
2495.74717	0.88013609
2493.81846	0.880522876
2491.88976	0.880647689
2489.96105	0.880803339
2488.03234	0.880927566
2486.10363	0.881051536
2484.17493	0.881435257
2482.24622	0.881329525
2480.31751	0.881452659
2478.38881	0.881834672
2476.4601	0.881957028
2474.53139	0.882109617
2472.60268	0.882231405
2470.67398	0.882125355
2468.74527	0.882246844
2466.81656	0.882368082
2464.88786	0.882746207
2462.95915	0.882866684
2461.03044	0.883016932
2459.10173	0.883136853
2457.17303	0.883030458
2455.24432	0.883405779
2453.31561	0.883524904
2451.3869	0.883898954
2449.4582	0.883792049
2447.52949	0.883910387
2445.60078	0.884028484
2443.67208	0.884175768
2441.74337	0.884293327
2439.81466	0.884186518
2437.88595	0.884556962
2435.95725	0.884673748
2434.02854	0.885042951
2432.09983	0.884935655
2430.17112	0.885051676
2428.24242	0.885196375
2426.31371	0.885311871
2424.385	0.885427136
2422.4563	0.885570891
2420.52759	0.885685635
2418.59888	0.885578368
2416.67017	0.885942971
2414.74147	0.886056972
2412.81276	0.886199151
2410.88405	0.88631264
2408.95535	0.886425903
2407.02664	0.88653894
2405.09793	0.88667992
2403.16922	0.887040715
2401.24052	0.886932804
2399.31181	0.887044835
2397.3831	0.887404108
2395.45439	0.887296095
2393.52569	0.887407407
2391.59698	0.88776517
2389.66827	0.887875801
2387.73957	0.888013783
2385.81086	0.888123924
2383.88215	0.888261297
2381.95344	0.888370952
2380.02474	0.88872549
2378.09603	0.888616891
2376.16732	0.88872585
2374.23861	0.888834596
2372.30991	0.888943129
2370.3812	0.889051451
2368.45249	0.889403167
2366.52379	0.88951083
2364.59508	0.889402042
2362.66637	0.889509471
2360.73766	0.889643463
2358.80896	0.889777132
2356.88025	0.889883833
2354.95154	0.89001692
2353.02284	0.890149686
2351.09413	0.890496864
2349.16542	0.890628764
2347.23671	0.890734055
2345.30801	0.890865385
2343.3793	0.891184242
2341.45059	0.891288697
2339.52188	0.891392951
2337.59318	0.891283525
2335.66447	0.89117436
2333.73576	0.891304348
2331.80706	0.891646778
2329.87835	0.891775924
2327.94964	0.892117171
2326.02093	0.892007612
2324.09223	0.892135899
2322.16352	0.892263882
2320.23481	0.892603129
2318.3061	0.892730287
2316.3774	0.892857143
2314.44869	0.89274746
2312.51998	0.892848714
2310.59128	0.892975012
2308.66257	0.893311352
2306.73386	0.893436838
2304.80515	0.893772033
2302.87645	0.893661972
2300.94774	0.893996248
2299.01903	0.893886156
2297.09033	0.89398549
2295.16162	0.894109397
2293.23291	0.894208314
2291.3042	0.894540364
2289.3755	0.894871795
2287.44679	0.894969725
2285.51808	0.895067473
2283.58937	0.894957007
2281.66067	0.895078923
2279.73196	0.895176252
2277.80325	0.895273401
2275.87455	0.895163157
2273.94584	0.895491329
2272.01713	0.895818896
2270.08842	0.895708353
2268.15972	0.895804518
2266.23101	0.896130815
2264.3023	0.896020244
2262.37359	0.896115835
2260.44489	0.896235078
2258.51618	0.896559633
2256.58747	0.896449026
2254.65877	0.896567506
2252.73006	0.896457143
2250.80135	0.896780087
2248.87264	0.89689781
2246.94394	0.897015265
2245.01523	0.897360036
2243.08652	0.897476699
2241.15782	0.897593097
2239.22911	0.897709231
2237.3004	0.897621744
2235.37169	0.897737557
2233.44299	0.897853107
2231.51428	0.897991424
2229.58557	0.898106402
2227.65686	0.898221121
2225.72816	0.898560504
2223.79945	0.898674455
2221.87074	0.898788151
2219.94204	0.898901592
2218.01333	0.899014778
2216.08462	0.898904048
2214.15591	0.898816172
2212.22721	0.89892905
2210.2985	0.899041676
2208.36979	0.899154052
2206.44108	0.899266177
2204.51238	0.899577872
2202.58367	0.899689303
2200.65496	0.9
2198.72626	0.900110742
2196.79755	0.9
2194.86884	0.900309461
2192.94013	0.900419519
2191.01143	0.900529334
2189.08272	0.900638907
2187.15401	0.900726392
2185.22531	0.901033649
2183.2966	0.900922671
2181.36789	0.901229148
2179.43918	0.901118176
2177.51048	0.901423877
2175.58177	0.901531729
2173.65306	0.901420765
2171.72435	0.901528384
2169.79565	0.901832461
2167.86694	0.902136007
2165.93823	0.902242543
2164.00953	0.902545138
2162.08082	0.902433724
2160.15211	0.902539614
2158.2234	0.90262416
2156.2947	0.902925244
2154.36599	0.903225806
2152.43728	0.903114187
2150.50857	0.903393127
2148.57987	0.903434867
2146.65116	0.903846154
2144.72245	0.903650897
2142.79375	0.90377562
2140.86504	0.903982777
2138.93633	0.904168457
2137.00762	0.904271303
2135.07892	0.904373928
2133.15021	0.904670094
2131.2215	0.904772095
2129.2928	0.904680487
2127.36409	0.904782237
2125.43538	0.904883771
2123.50667	0.905177925
2121.57797	0.905491699
2119.64926	0.905592175
2117.72055	0.905884852
2115.79184	0.90598472
2113.86314	0.906084376
2111.93443	0.90618382
2110.00572	0.906283055
2108.07702	0.906190577
2106.14831	0.906500633
2104.2196	0.906599199
2102.29089	0.906697557
2100.36219	0.906795708
2098.43348	0.907103825
2096.50477	0.907201344
2094.57606	0.907298658
2092.64736	0.90760528
2090.71865	0.907492675
2088.78994	0.907608696
2086.86124	0.907705158
2084.93253	0.907820647
2083.00382	0.907916667
2081.07511	0.908031627
2079.14641	0.908335065
2077.2177	0.908637874
2075.28899	0.908544173
2073.36029	0.908846074
2071.43158	0.908940397
2069.50287	0.909015715
2067.57416	0.909072122
2065.64546	0.909165979
2063.71675	0.909090909
2061.78804	0.909427748
2059.85933	0.909539474
2057.93063	0.909650924
2056.00192	0.909948718
2054.07321	0.910059414
2052.14451	0.910151453
2050.2158	0.910243304
2048.28709	0.910539216
2046.35838	0.910834524
2044.42968	0.910925397
2042.50097	0.910812462
2040.57226	0.910903173
2038.64355	0.911011784
2036.71485	0.911305054
2034.78614	0.911210217
2032.85743	0.911669368
2030.92873	0.911705144
2029.00002	0.911961141
2027.07131	0.912085691
2025.1426	0.912025827
2023.2139	0.912132205
2021.28519	0.912220656
2019.35648	0.912291289
2017.42778	0.912178457
2015.49907	0.912467376
2013.57036	0.912755716
2011.64165	0.913043478
2009.71295	0.913130504
2007.78424	0.913217357
2005.85553	0.913304035
2003.92682	0.91319098
2001.99812	0.913459621
2000.06941	0.913545817
1998.1407	0.913631841
1996.212	0.913700537
1994.28329	0.913769124
1992.35458	0.913820492
1990.42587	0.913905971
1988.49717	0.914008322
1986.56846	0.91429137
1984.63975	0.914556962
1982.71104	0.914822134
1980.78234	0.914708786
1978.85363	0.91477609
1976.92492	0.914860071
1974.99622	0.915124065
1973.06751	0.915207555
1971.1388	0.915274228
1969.21009	0.915144372
1967.28139	0.915210991
1965.35268	0.915490196
1963.42397	0.915719326
1961.49527	0.915832843
1959.56656	0.915913556
1957.63785	0.916225231
1955.70914	0.916308174
1953.78044	0.916487805
1951.85173	0.916390567
1949.92302	0.916471963
1947.99431	0.9165532
1946.06561	0.916439953
1944.1369	0.916488639
1942.20819	0.916941587
1940.27949	0.917248062
1938.35078	0.91736017
1936.42207	0.917633411
1934.49336	0.917519799
1932.56466	0.917599382
1930.63595	0.917678812
1928.70724	0.917934887
1926.77853	0.918190568
1924.84983	0.918237784
1922.92112	0.91810842
1920.99241	0.91815562
1919.06371	0.918202765
1917.135	0.918473048
1915.20629	0.918789504
1913.27758	0.91889824
1911.34888	0.918944752
1909.42017	0.919006686
1907.49146	0.919274809
1905.56276	0.919176515
1903.63405	0.919443915
1901.70534	0.919695528
1899.77663	0.919756608
1897.84793	0.919817595
1895.91922	0.919863274
1893.99051	0.919924099
1892.0618	0.919984831
1890.1331	0.92003032
1888.20439	0.92010602
1886.27568	0.920385779
1884.34698	0.920287117
1882.41827	0.920724802
1880.48956	0.920973218
1878.56085	0.921032793
1876.63215	0.921280603
1874.70344	0.921339857
1872.77473	0.921196163
1870.84602	0.921008087
1868.91732	0.9208349
1866.98861	0.920938967
1865.0599	0.921259843
1863.1312	0.921535581
1861.20249	0.92160898
1859.27378	0.921854552
1857.34507	0.921927531
1855.41637	0.922000373
1853.48766	0.921886652
1851.55895	0.921944858
1849.63025	0.922160149
1847.70154	0.921973929
1845.77283	0.921944858
1843.84412	0.921816828
1841.91542	0.9221479
1839.98671	0.922477745
1838.058	0.922378659
1836.12929	0.922621251
1834.20059	0.922849214
1832.27188	0.922849214
1830.34317	0.9226642
1828.41447	0.922550832
1826.48576	0.922807018
1824.55705	0.922892455
1822.62834	0.923360354
1820.69964	0.923629003
1818.77093	0.923501287
1816.84222	0.923727256
1814.91351	0.923952976
1812.98481	0.924150597
1811.0561	0.924164524
1809.12739	0.92440367
1807.19869	0.924472961
1805.26998	0.924500641
1803.34127	0.924303519
1801.41256	0.924289643
1799.48386	0.924670088
1797.55515	0.925077853
1795.62644	0.925247343
1793.69774	0.925192519
1791.76903	0.925362186
1789.84032	0.925627404
1787.91161	0.925864909
1785.98291	0.925851337
1784.0542	0.925837759
1782.12549	0.926020875
1780.19678	0.92603442
1778.26808	0.926583669
1776.33937	0.926739927
1774.41066	0.926829268
1772.48196	0.926762115
1770.55325	0.926959075
1768.62454	0.926856095
1766.69583	0.927472527
1764.76713	0.927865251
1762.83842	0.928008793
1760.90971	0.928152493
1758.981	0.928139322
1757.0523	0.928270042
1755.12359	0.928374656
1753.19488	0.928400515
1751.26618	0.928215538
1749.33747	0.928109407
1747.40876	0.928439349
1745.48005	0.928928373
1743.55135	0.92920682
1741.62264	0.929472903
1739.69393	0.929593164
1737.76523	0.929713648
1735.83652	0.929769001
1733.90781	0.929716629
1731.9791	0.930033495
1730.0504	0.93004268
1728.12169	0.93037037
1726.19298	0.930671104
1724.26427	0.930760709
1722.33557	0.930652896
1720.40686	0.930284028
1718.47815	0.9300867
1716.54945	0.930176861
1714.62074	0.930394858
1712.69203	0.930611498
1710.76332	0.930946292
1708.83462	0.930669586
1706.90591	0.93053783
1704.9772	0.930601093
1703.04849	0.930431615
1701.11979	0.930224085
1699.19108	0.930325632
1697.26237	0.930684086
1695.33367	0.931040724
1693.40496	0.931420321
1691.47625	0.931376081
1689.54754	0.931413141
1687.61884	0.931568522
1685.69013	0.931482149
1683.76142	0.931301839
1681.83272	0.931425486
1679.90401	0.931560984
1677.9753	0.931752874
1676.04659	0.931728351
1674.11789	0.931740614
1672.18918	0.931585563
1670.26047	0.931752874
1668.33176	0.932005741
1666.40306	0.932473581
1664.47435	0.932664756
1662.54564	0.932664756
1660.61694	0.932712956
1658.68823	0.932915921
1656.75952	0.932449382
1654.83081	0.932038835
1652.90211	0.931965443
1650.9734	0.932459134
1649.04469	0.932543954
1647.11598	0.93253185
1645.18728	0.93297491
1643.25857	0.933273703
1641.32986	0.933321416
1639.40116	0.93292792
1637.47245	0.932640631
1635.54374	0.932616487
1633.61503	0.933261764
1631.68633	0.933559564
1629.75762	0.933571429
1627.82891	0.933547696
1625.90021	0.933702645
1623.9715	0.933690795
1622.04279	0.933893157
1620.11408	0.934095374
1618.18538	0.934250491
1616.25667	0.934619507
1614.32796	0.934879572
1612.39925	0.934770986
1610.47055	0.934949207
1608.54184	0.934949207
1606.61313	0.935150543
1604.68443	0.935351736
1602.75572	0.935552786
1600.82701	0.935753693
1598.8983	0.935965848
1596.9696	0.93598862
1595.04089	0.936200462
1593.11218	0.936423371
1591.18347	0.936491041
1589.25477	0.936558568
1587.32606	0.936791785
1585.39735	0.937024589
1583.46865	0.93708024
1581.53994	0.937124691
1579.61123	0.937135794
1577.68252	0.937113584
1575.75382	0.936981465
1573.82511	0.937257667
1571.8964	0.937312907
1569.96769	0.937312907
1568.03899	0.937390081
1566.11028	0.937478047
1564.18157	0.937686502
1562.25287	0.937445089
1560.32416	0.937279774
1558.39545	0.937081424
1556.46674	0.937598875
1554.53804	0.938135296
1552.60933	0.938407699
1550.68062	0.938111888
1548.75192	0.938472295
1546.82321	0.938275922
1544.8945	0.938178634
1542.96579	0.938070175
1541.03709	0.938213095
1539.10838	0.938671807
1537.17967	0.938853948
1535.25096	0.939103123
1533.32226	0.939134984
1531.39355	0.939372822
1529.46484	0.939415042
1527.53614	0.939383383
1525.60743	0.939341119
1523.67872	0.939267016
1521.75001	0.939367465
1519.82131	0.939399232
1517.8926	0.939811584
1515.96389	0.940212655
1514.03518	0.940592334
1512.10648	0.940571628
1510.17777	0.940324551
1508.24906	0.940241132
1506.32036	0.940632094
1504.39165	0.941504178
1502.46294	0.941799861
1500.53423	0.941953424
1498.60553	0.941892832
1496.67682	0.942230729
1494.74811	0.942454798
1492.81941	0.942454798
1490.8907	0.942384682
1488.96199	0.942538743
1487.03328	0.942946599
1485.10458	0.943363447
1483.17587	0.943556791
1481.24716	0.943546986
1479.31845	0.943671766
1477.38975	0.943583493
1475.46104	0.943804538
1473.53233	0.944046162
1471.60363	0.94436669
1469.67492	0.944551338
1467.74621	0.944687555
1465.8175	0.944794953
1463.8888	0.944950912
1461.96009	0.944941259
1460.03138	0.944659171
1458.10267	0.944170483
1456.17397	0.944356401
1454.24526	0.9450202
1452.31655	0.945476858
1450.38785	0.945846477
1448.45914	0.945855966
1446.53043	0.94606899
1444.60172	0.94646606
1442.67302	0.946503497
1440.74431	0.946484785
1438.8156	0.946059545
1436.8869	0.945993337
1434.95819	0.946381637
1433.02948	0.946788027
1431.10077	0.946963067
1429.17207	0.946963067
1427.24336	0.947138106
1425.31465	0.947285464
1423.38594	0.94740533
1421.45724	0.947137338
1419.52853	0.946868403
1417.59982	0.947035017
1415.67112	0.947423949
1413.74241	0.947942314
1411.8137	0.947905667
1409.88499	0.948212084
1407.95629	0.948166432
1406.02758	0.948120699
1404.09887	0.948260639
1402.17016	0.948577487
1400.24146	0.948708879
1398.31275	0.94832773
1396.38404	0.94832773
1394.45534	0.948541114
1392.52663	0.948957965
1390.59792	0.949161518
1388.66921	0.949134581
1386.74051	0.949302243
1384.8118	0.949682203
1382.88309	0.950238221
1380.95439	0.950432175
1379.02568	0.950617284
1377.09697	0.950608573
1375.16826	0.950767602
1373.23956	0.950952717
1371.31085	0.951322751
1369.38214	0.95151622
1367.45343	0.95170104
1365.52473	0.951692525
1363.59602	0.951507671
1361.66731	0.95153331
1359.73861	0.952104244
1357.8099	0.952330695
1355.88119	0.952707454
1353.95248	0.952899824
1352.02378	0.953100299
1350.09507	0.952957697
1348.16636	0.953157895
1346.23765	0.953357882
1344.30895	0.953382404
1342.38024	0.95321535
1340.45153	0.952864903
1338.52283	0.952881415
1336.59412	0.953447672
1334.66541	0.953671329
1332.7367	0.953886463
1330.808	0.953910615
1328.87929	0.953760251
1326.95058	0.953950811
1325.02188	0.95412524
1323.09317	0.95412524
1321.16446	0.954117237
1319.23575	0.954275742
1317.30705	0.954267761
1315.37834	0.95425179
1313.44963	0.95441048
1311.52092	0.954402516
1309.59222	0.954569282
1307.66351	0.954736106
1305.7348	0.954887218
1303.8061	0.955038488
1301.87739	0.955014878
1299.94868	0.955158522
1298.01997	0.955302366
1296.09127	0.955446413
1294.16256	0.955415131
1292.23385	0.955551651
1290.30514	0.955680619
1288.37644	0.955641612
1286.44773	0.955947137
1284.51902	0.95607691
1282.59032	0.956199223
1280.66161	0.956314114
1278.7329	0.956252214
1276.80419	0.956529454
1274.87549	0.956444444
1272.94678	0.956521739
1271.01807	0.956568365
1269.08937	0.956755787
1267.16066	0.956733369
1265.23195	0.956884058
1263.30324	0.956901255
1261.37454	0.956656347
1259.44583	0.956687898
1257.51712	0.956790123
1255.58841	0.956899674
1253.65971	0.956796819
1251.731	0.956828035
1249.80229	0.956647399
1247.87359	0.956616052
1245.94488	0.95674991
1244.01617	0.956695053
1242.08746	0.956640058
1240.15876	0.956229568
1238.23005	0.955983994
1236.30134	0.955919854
1234.37263	0.955847473
1232.44393	0.955782934
1230.51522	0.955710102
1228.58651	0.95563703
1226.65781	0.955380095
1224.7291	0.955306235
1222.80039	0.9550479
1220.87168	0.954964932
1218.94298	0.954696746
1217.01427	0.954065568
1215.08556	0.953971789
1213.15686	0.95370026
1211.22815	0.95359672
1209.29944	0.953314659
1207.37073	0.953022646
1205.44203	0.952729319
1203.51332	0.952246663
1201.58461	0.951761824
1199.6559	0.951274788
1197.7272	0.950785539
1195.79849	0.950483779
1193.86978	0.950180643
1191.94108	0.94987612
1190.01237	0.949197861
1188.08366	0.948879954
1186.15495	0.94835861
1184.22625	0.947824413
1182.29754	0.947459919
1180.36883	0.946919799
1178.44012	0.946234472
1176.51142	0.945751507
1174.58271	0.945072069
1172.654	0.944563732
1170.7253	0.944042262
1168.79659	0.943518337
1166.86788	0.942784113
1164.93917	0.942243249
1163.01047	0.941513535
1161.08176	0.940768621
1159.15305	0.939833201
1157.22435	0.939080231
1155.29564	0.93831104
1153.36693	0.93772527
1151.43822	0.936935128
1149.50952	0.936328833
1147.58081	0.935705621
1145.6521	0.934469466
1143.72339	0.933238347
1141.79469	0.931999183
1139.86598	0.93038493
1137.93727	0.929348942
1136.00857	0.92789452
1134.07986	0.926607401
1132.15115	0.925103734
1130.22244	0.923365264
1128.29374	0.921999164
1126.36503	0.920201596
1124.43632	0.918776371
1122.50761	0.917125901
1120.57891	0.915654952
1118.6502	0.914151145
1116.72149	0.912416613
1114.79279	0.910644743
1112.86408	0.908636067
1110.93537	0.907002188
1109.00666	0.90512877
1107.07796	0.903411608
1105.14925	0.901493203
1103.22054	0.9
1101.29184	0.898083427
1099.36313	0.896442329
1097.43442	0.894197952
1095.50571	0.892237443
1093.57701	0.890542707
1091.6483	0.888608176
1089.71959	0.886892421
1087.79088	0.884677606
1085.86218	0.883062645
1083.93347	0.881174278
1082.00476	0.879241751
1080.07606	0.877320799
1078.14735	0.875412931
1076.21864	0.873519659
1074.28993	0.871673004
1072.36123	0.869668811
1070.43252	0.867446859
1068.50381	0.865214269
1066.5751	0.863178108
1064.6464	0.861131167
1062.71769	0.859039343
1060.78898	0.857212004
1058.86028	0.854959981
1056.93157	0.852598349
1055.00286	0.85026738
1053.07415	0.847762646
1051.14545	0.845255474
1049.21674	0.843194546
1047.28803	0.84088694
1045.35933	0.838575957
1043.43062	0.83601757
1041.50191	0.833455433
1039.5732	0.831092642
1037.6445	0.828522505
1035.71579	0.826150833
1033.78708	0.823572654
1031.85837	0.820745463
1029.92967	0.818159509
1028.00096	0.815414826
1026.07225	0.812269939
1024.14355	0.809220206
1022.21484	0.805977462
1020.28613	0.802985805
1018.35742	0.799755501
1016.42872	0.796092796
1014.50001	0.792489637
1012.5713	0.788948393
1010.64259	0.785471331
1008.71389	0.781575758
1006.78518	0.777643358
1004.85647	0.774045433
1002.92777	0.769917914
1000.99906	0.766167954
999.07035	0.76212304
997.14164	0.758021713
995.21294	0.753619691
993.28423	0.749577397
991.35552	0.74546773
989.42682	0.741287512
987.49811	0.736969697
985.5694	0.732993197
983.64069	0.728867235
981.71199	0.724584555
979.78328	0.720382634
977.85457	0.716432619
975.92586	0.712199951
973.99716	0.708177977
972.06845	0.703768405
970.13974	0.699549324
968.21104	0.695128076
966.28233	0.690835851
964.35362	0.686774356
962.42491	0.682186235
960.49621	0.678000507
958.5675	0.673282443
956.63879	0.668879244
954.71008	0.664104535
952.78138	0.65963468
950.85267	0.65503876
948.92396	0.650220722
946.99526	0.645860538
945.06655	0.641430074
943.13784	0.636748742
941.20913	0.632337247
939.28043	0.627656712
937.35172	0.623235613
935.42301	0.618799671
933.49431	0.614001107
931.5656	0.609667505
929.63689	0.605018325
927.70818	0.600682594
925.77948	0.596214511
923.85077	0.591789535
921.92206	0.587583795
919.99335	0.583186361
918.06465	0.578884935
916.13594	0.574506284
914.20723	0.570090634
912.27853	0.565761367
910.34982	0.561381863
908.42111	0.557566303
906.4924	0.553379659
904.5637	0.549408379
902.63499	0.545307443
900.70628	0.541407529
898.77757	0.537367725
896.84887	0.533555927
894.92016	0.530006743
892.99145	0.526405451
891.06275	0.522727273
889.13404	0.519317786
887.20533	0.515663499
885.27662	0.512099644
883.34792	0.508456279
881.41921	0.505278486
879.4905	0.502024291
877.5618	0.498883929
875.63309	0.495867769
873.70438	0.493176649
871.77567	0.490256018
869.84697	0.48748556
867.91826	0.484484096
865.98955	0.481828839
864.06084	0.479133858
862.13214	0.476794923
860.20343	0.474230923
858.27472	0.472434608
856.34602	0.470421394
854.41731	0.468380253
852.4886	0.466721446
850.55989	0.464654816
848.63119	0.462785863
846.70248	0.461120401
844.77377	0.459629941
842.84506	0.458579882
840.91636	0.457094308
838.98765	0.456215293
837.05894	0.455130957
835.13024	0.454898576
833.20153	0.454032958
831.27282	0.453832753
829.34411	0.453432444
827.41541	0.452987698
825.4867	0.452980132
823.55799	0.453617399
821.62929	0.454504906
819.70058	0.455197133
817.77187	0.456140351
815.84316	0.457297786
813.91446	0.458465729
811.98575	0.459854015
810.05704	0.461256304
808.12833	0.463133641
806.19963	0.465740741
804.27092	0.468401487
802.34221	0.471328671
800.41351	0.474077534
798.4848	0.476858345
796.55609	0.48059841
794.62738	0.484579439
792.69868	0.488795518
790.76997	0.493470149
788.84126	0.497904052
786.91255	0.503724395
784.98385	0.509302326
783.05514	0.515574152
781.12643	0.522547652
779.19773	0.529275093
777.26902	0.536211699
775.34031	0.544315545
773.4116	0.552363299
771.4829	0.560592044
769.55419	0.569053118
767.62548	0.577490775
765.69678	0.586635945
763.76807	0.595303867
761.83936	0.603955842
759.91065	0.613155474
757.98195	0.622355106
756.05324	0.631385182
754.12453	0.640257946
752.19582	0.649746193
750.26712	0.65896488
748.33841	0.668055556
746.4097	0.677030162
744.481	0.685435086
742.55229	0.693887074
740.62358	0.701918577
738.69487	0.709526044
736.76617	0.717514124
734.83746	0.725082664
732.90875	0.732100522
730.98004	0.738695859
729.05134	0.744863832
727.12263	0.751439539
725.19392	0.757838881
723.26522	0.763936016
721.33651	0.769605455
719.4078	0.774730656
717.47909	0.779911374
715.55039	0.784653465
713.62168	0.788451966
711.69297	0.792689034
709.76427	0.796875
707.83556	0.800608828
705.90685	0.804392237
703.97814	0.807712082
702.04944	0.811076605
700.12073	0.8125
698.19202	0.814368117
696.26331	0.81669308
694.33461	0.819052688
692.4059	0.820911528
690.47719	0.822702703
688.54849	0.824523161
686.61978	0.826278175
684.69107	0.828428651
682.76236	0.830156951
680.83366	0.830882353
678.90495	0.832191781
676.97624	0.832949309
675.04753	0.834205934
673.11883	0.835487662
671.19012	0.836795252
669.26141	0.837529976
667.33271	0.83827983
665.404	0.83853211
663.47529	0.839307787
661.54658	0.840099938
659.61788	0.840378549
657.68917	0.84119898
655.76046	0.842682141
653.83176	0.842996743
651.90305	0.843317972
649.97434	0.844207723
648.04563	0.845791246
646.11693	0.846834581
644.18822	0.848214286
642.25951	0.848232848
640.3308	0.848951049
638.4021	0.849576271
636.47339	0.850820842
634.54468	0.85147801
632.61598	0.85266229
630.68727	0.853136531
628.75856	0.854899028
626.82985	0.855193328
624.90115	0.855606759
622.97244	0.856031128
621.04373	0.855791962
619.11502	0.856344773
617.18632	0.856911884
615.25761	0.858544563
613.3289	0.858910891
611.4002	0.858686617
609.47149	0.859296482
607.54278	0.861486486
605.61407	0.86286201
603.68537	0.863519313
601.75666	0.865684575
