4999.20917	0.487058824
4997.28046	0.484777518
4995.35176	0.48364486
4993.42305	0.484848485
4991.49434	0.48372093
4989.56564	0.484918794
4987.63693	0.483796296
4985.70822	0.486111111
4983.77951	0.484988453
4981.85081	0.486175115
4979.9221	0.487356322
4977.99339	0.486238532
4976.06468	0.485125858
4974.13598	0.48630137
4972.20727	0.485193622
4970.27856	0.485193622
4968.34986	0.486363636
4966.42115	0.485260771
4964.49244	0.486425339
4962.56373	0.485327314
4960.63503	0.486486486
4958.70632	0.487640449
4956.77761	0.486547085
4954.8489	0.487695749
4952.9202	0.486607143
4950.99149	0.487750557
4949.06278	0.486666667
4947.13408	0.485587583
4945.20537	0.484513274
4943.27666	0.485651214
4941.34795	0.486784141
4939.41925	0.485714286
4937.49054	0.486842105
4935.56183	0.485776805
4933.63313	0.486899563
4931.70442	0.48583878
4929.77571	0.484782609
4927.847	0.485900217
4925.9183	0.487012987
4923.98959	0.485961123
4922.06088	0.487068966
4920.13217	0.486021505
4918.20347	0.487124464
4916.27476	0.48608137
4914.34605	0.487179487
4912.41735	0.486140725
4910.48864	0.487234043
4908.55993	0.486199575
4906.63122	0.487288136
4904.70252	0.486257928
4902.77381	0.487341772
4900.8451	0.486315789
4898.91639	0.487394958
4896.98769	0.486373166
4895.05898	0.487447699
4893.13027	0.486430063
4891.20157	0.4875
4889.27286	0.486486486
4887.34415	0.487551867
4885.41544	0.488612836
4883.48674	0.486597938
4881.55803	0.487654321
4879.62932	0.487654321
4877.70062	0.487704918
4875.77191	0.486707566
4873.8432	0.487755102
4871.91449	0.486761711
4869.98579	0.487804878
4868.05708	0.486815416
4866.12837	0.486868687
4864.19966	0.486868687
4862.27096	0.487903226
4860.34225	0.486921529
4858.41354	0.487951807
4856.48484	0.486973948
4854.55613	0.488
4852.62742	0.489021956
4850.69871	0.487077535
4848.77001	0.486111111
4846.8413	0.487128713
4844.91259	0.486166008
4842.98388	0.488142292
4841.05518	0.487179487
4839.12647	0.487229862
4837.19776	0.48627451
4835.26906	0.487279843
4833.34035	0.48828125
4831.41164	0.487329435
4829.48293	0.488326848
4827.55423	0.487378641
4825.62552	0.487427466
4823.69681	0.486486486
4821.76811	0.487475915
4819.8394	0.488461538
4817.91069	0.489443378
4815.98198	0.488505747
4814.05328	0.486641221
4812.12457	0.487619048
4810.19586	0.488593156
4808.26715	0.487666034
4806.33845	0.488636364
4804.40974	0.489603025
4802.48103	0.488679245
4800.55233	0.487758945
4798.62362	0.487804878
4796.69491	0.488764045
4794.7662	0.487850467
4792.8375	0.48880597
4790.90879	0.487895717
4788.98008	0.487940631
4787.05137	0.487037037
4785.12267	0.487985213
4783.19396	0.487084871
4781.26525	0.488029466
4779.33655	0.488073394
4777.40784	0.487179487
4775.47913	0.488117002
4773.55042	0.489051095
4771.62172	0.488160291
4769.69301	0.487272727
4767.7643	0.488203267
4765.8356	0.489130435
4763.90689	0.487364621
4761.97818	0.486486486
4760.04947	0.487410072
4758.12077	0.488330341
4756.19206	0.487455197
4754.26335	0.488372093
4752.33464	0.486631016
4750.40594	0.487544484
4748.47723	0.487588652
4746.54852	0.488495575
4744.61982	0.487632509
4742.69111	0.488536155
4740.7624	0.48943662
4738.83369	0.48857645
4736.90499	0.489473684
4734.97628	0.487762238
4733.04757	0.488656195
4731.11886	0.486956522
4729.19016	0.487847222
4727.26145	0.488734835
4725.33274	0.487889273
4723.40404	0.487046632
4721.47533	0.487931034
4719.54662	0.487972509
4717.61791	0.488850772
4715.68921	0.488013699
4713.7605	0.488054608
4711.83179	0.488926746
4709.90308	0.488095238
4707.97438	0.488964346
4706.04567	0.488135593
4704.11696	0.489001692
4702.18826	0.489038786
4700.25955	0.488215488
4698.33084	0.488255034
4696.40213	0.489112228
4694.47343	0.488294314
4692.54472	0.488333333
4690.61601	0.487520799
4688.68731	0.488372093
4686.7586	0.487562189
4684.82989	0.487603306
4682.90118	0.488448845
4680.97248	0.487644152
4679.04377	0.487684729
4677.11506	0.48852459
4675.18635	0.487725041
4673.25765	0.488562092
4671.32894	0.489396411
4669.40023	0.487804878
4667.47153	0.488636364
4665.54282	0.488673139
4663.61411	0.489499192
4661.6854	0.488709677
4659.7567	0.489533011
4657.82799	0.488745981
4655.89928	0.488782051
4653.97057	0.488
4652.04187	0.488038278
4650.11316	0.488853503
4648.18445	0.489666137
4646.25575	0.488114105
4644.32704	0.488151659
4642.39833	0.488958991
4640.46962	0.488188976
4638.54092	0.488993711
4636.61221	0.487460815
4634.6835	0.488262911
4632.7548	0.4890625
4630.82609	0.489096573
4628.89738	0.488335925
4626.96867	0.488372093
4625.03997	0.489164087
4623.11126	0.489197531
4621.18255	0.48844376
4619.25384	0.489230769
4617.32514	0.490015361
4615.39643	0.488514548
4613.46772	0.488549618
4611.53902	0.487804878
4609.61031	0.488584475
4607.6816	0.487841945
4605.75289	0.487878788
4603.82419	0.488653555
4601.89548	0.488687783
4599.96677	0.487951807
4598.03806	0.488721805
4596.10936	0.487256372
4594.18065	0.488023952
4592.25194	0.488059701
4590.32324	0.488822653
4588.39453	0.488095238
4586.46582	0.488130564
4584.53711	0.488888889
4582.60841	0.488921713
4580.6797	0.48820059
4578.75099	0.488954345
4576.82229	0.488986784
4574.89358	0.488269795
4572.96487	0.488304094
4571.03616	0.489051095
4569.10746	0.487627365
4567.17875	0.488372093
4565.25004	0.488405797
4563.32133	0.489146165
4561.39263	0.488439306
4559.46392	0.488472622
4557.53521	0.489208633
4555.60651	0.487804878
4553.6778	0.488538682
4551.74909	0.488571429
4549.82038	0.489300999
4547.89168	0.488603989
4545.96297	0.488636364
4544.03426	0.489361702
4542.10555	0.487977369
4540.17685	0.488700565
4538.24814	0.488732394
4536.31943	0.489451477
4534.39073	0.489481066
4532.46202	0.488795518
4530.53331	0.48951049
4528.6046	0.489539749
4526.6759	0.488857939
4524.74719	0.488888889
4522.81848	0.488210818
4520.88978	0.48824343
4518.96107	0.488275862
4517.03236	0.488980716
4515.10365	0.489010989
4513.17495	0.488340192
4511.24624	0.488372093
4509.31753	0.489071038
4507.38882	0.48773842
4505.46012	0.488435374
4503.53141	0.488466757
4501.6027	0.487804878
4499.674	0.487837838
4497.74529	0.489878543
4495.81658	0.488559892
4493.88787	0.489247312
4491.95917	0.487935657
4490.03046	0.488621151
4488.10175	0.488651535
4486.17304	0.489333333
4484.24434	0.489361702
4482.31563	0.488711819
4480.38692	0.488741722
4478.45822	0.488771466
4476.52951	0.488126649
4474.6008	0.488157895
4472.67209	0.488830486
4470.74339	0.488859764
4468.81468	0.488888889
4466.88597	0.489556136
4464.95727	0.48828125
4463.02856	0.488946684
4461.09985	0.488975357
4459.17114	0.489637306
4457.24244	0.488372093
4455.31373	0.489032258
4453.38502	0.489060489
4451.45631	0.488431877
4449.52761	0.488461538
4447.5989	0.488491049
4445.67019	0.489144317
4443.74149	0.489171975
4441.81278	0.489821883
4439.88407	0.48857868
4437.95536	0.489226869
4436.02666	0.489254109
4434.09795	0.488020177
4432.16924	0.488664987
4430.24053	0.488693467
4428.31183	0.488721805
4426.38312	0.489361702
4424.45441	0.488139825
4422.52571	0.488778055
4420.597	0.48880597
4418.66829	0.489440994
4416.73958	0.488228005
4414.81088	0.488257108
4412.88217	0.488286067
4410.95346	0.488314883
4409.02476	0.488943489
4407.09605	0.487745098
4405.16734	0.488372093
4403.23863	0.488400488
4401.30993	0.48902439
4399.38122	0.489051095
4397.45251	0.48907767
4395.5238	0.488484848
4393.5951	0.488512696
4391.66639	0.489130435
4389.73768	0.489156627
4387.80898	0.487980769
4385.88027	0.488595438
4383.95156	0.488622754
4382.02285	0.48864994
4380.09415	0.489260143
4378.16544	0.489285714
4376.23673	0.488703924
4374.30802	0.488730724
4372.37932	0.488757396
4370.45061	0.488783943
4368.5219	0.488810365
4366.5932	0.489411765
4364.66449	0.488262911
4362.73578	0.488290398
4360.80707	0.488317757
4358.87837	0.488344988
4356.94966	0.488372093
4355.02095	0.487804878
4353.09225	0.48783314
4351.16354	0.487861272
4349.23483	0.488452656
4347.30612	0.488479263
4345.37742	0.489067894
4343.44871	0.489092997
4341.52	0.487972509
4339.59129	0.488
4337.66259	0.488027366
4335.73388	0.488610478
4333.80517	0.488636364
4331.87647	0.488662132
4329.94776	0.487556561
4328.01905	0.488135593
4326.09034	0.488162345
4324.16164	0.488188976
4322.23293	0.488215488
4320.30422	0.488789238
4318.37551	0.488814318
4316.44681	0.488839286
4314.5181	0.487750557
4312.58939	0.487777778
4310.66069	0.487804878
4308.73198	0.488372093
4306.80327	0.48839779
4304.87456	0.487320838
4302.94586	0.487348735
4301.01715	0.487912088
4299.08844	0.487938596
4297.15974	0.487964989
4295.23103	0.487991266
4293.30232	0.488017429
4291.37361	0.488043478
4289.44491	0.488599349
4287.5162	0.488624052
4285.58749	0.488648649
4283.65878	0.488673139
4281.73008	0.489224138
4279.80137	0.488172043
4277.87266	0.488197425
4275.94396	0.488222698
4274.01525	0.488247863
4272.08654	0.488272921
4270.15783	0.487234043
4268.22913	0.487778959
4266.30042	0.487804878
4264.37171	0.487830688
4262.443	0.487856389
4260.5143	0.487881981
4258.58559	0.487907466
4256.65688	0.486883526
4254.72818	0.486910995
4252.79947	0.487983281
4250.87076	0.488517745
4248.94205	0.488541667
4247.01335	0.489073881
4245.08464	0.488058152
4243.15593	0.489119171
4241.22723	0.489141675
4239.29852	0.487628866
4237.36981	0.487654321
4235.4411	0.488180884
4233.5124	0.488205128
4231.58369	0.488229273
4229.65498	0.48825332
4227.72627	0.4872579
4225.79757	0.487283825
4223.86886	0.487309645
4221.94015	0.48733536
4220.01145	0.487854251
4218.08274	0.487878788
4216.15403	0.487903226
4214.22532	0.487927565
4212.29662	0.487951807
4210.36791	0.487975952
4208.4392	0.488488488
4206.51049	0.488023952
4204.58179	0.488047809
4202.65308	0.488071571
4200.72437	0.488095238
4198.79567	0.488118812
4196.86696	0.48715415
4194.93825	0.487179487
4193.00954	0.487204724
4191.08084	0.487708948
4189.15213	0.487733072
4187.22342	0.487757101
4185.29472	0.487781036
4183.36601	0.487804878
4181.4373	0.488304094
4179.50859	0.487852284
4177.57989	0.487875849
4175.65118	0.487899322
4173.72247	0.487922705
4171.79376	0.486981678
4169.86506	0.487006737
4167.93635	0.4870317
4166.00764	0.487547893
4164.07894	0.487571702
4162.15023	0.488061127
4160.22152	0.488083889
4158.29281	0.488106565
4156.36411	0.488129155
4154.4354	0.487203791
4152.50669	0.487228004
4150.57798	0.487252125
4148.64928	0.487276155
4146.72057	0.487300094
4144.79186	0.486866792
4142.86316	0.486891386
4140.93445	0.486915888
4139.00574	0.486940299
4137.07703	0.486964618
4135.14833	0.486988848
4133.21962	0.487012987
4131.29091	0.487037037
4129.36221	0.487511563
4127.4335	0.487534626
4125.50479	0.487557604
4123.57608	0.487132353
4121.64738	0.487155963
4119.71867	0.487179487
4117.78996	0.487202925
4115.86125	0.487226277
4113.93255	0.487249545
4112.00384	0.487272727
4110.07513	0.487295826
4108.14643	0.486877828
4106.21772	0.486901536
4104.28901	0.486925158
4102.3603	0.486948695
4100.4316	0.486972147
4098.50289	0.486995516
4096.57418	0.4870188
4094.64547	0.487042002
4092.71677	0.48706512
4090.78806	0.487088157
4088.85935	0.487111111
4086.93065	0.486702128
4085.00194	0.486725664
4083.07323	0.486749117
4081.14452	0.486772487
4079.21582	0.486795775
4077.28711	0.486818981
4075.3584	0.486842105
4073.4297	0.486865149
4071.50099	0.486888112
4069.57228	0.486910995
4067.64357	0.486510009
4065.71487	0.486533449
4063.78616	0.486556808
4061.85745	0.486580087
4059.92874	0.486183074
4058.00004	0.486206897
4056.07133	0.486230637
4054.14262	0.48583691
4052.21392	0.487135506
4050.28521	0.487157534
4048.3565	0.486324786
4046.42779	0.486348123
4044.49909	0.485957447
4042.57038	0.485981308
4040.64167	0.486005089
4038.71296	0.486028789
4036.78426	0.485641892
4034.85555	0.486509275
4032.92684	0.486531987
4030.99814	0.486554622
4029.06943	0.486169321
4027.14072	0.486192469
4025.21201	0.486215539
4023.28331	0.486238532
4021.3546	0.485856905
4019.42589	0.485880399
4017.49719	0.485903814
4015.56848	0.486754967
4013.63977	0.48677686
4011.71106	0.486397362
4009.78236	0.486419753
4007.85365	0.485620378
4005.92494	0.485245902
4003.99623	0.485270049
4002.06753	0.485294118
4000.13882	0.484922575
3998.21011	0.485760781
3996.28141	0.485783916
3994.3527	0.485806975
3992.42399	0.48582996
3990.49528	0.48585287
3988.56658	0.486682809
3986.63787	0.486312399
3984.70916	0.486334405
3982.78045	0.485966319
3980.85175	0.485988791
3978.92304	0.486011191
3976.99433	0.48603352
3975.06563	0.486055777
3973.13692	0.485691574
3971.20821	0.485714286
3969.2795	0.485352336
3967.3508	0.486166008
3965.42209	0.486187845
3963.49338	0.486209614
3961.56468	0.485849057
3959.63597	0.485871272
3957.70726	0.485893417
3955.77855	0.485535575
3953.84985	0.485558158
3951.92114	0.48558067
3949.99243	0.485603113
3948.06372	0.485625486
3946.13502	0.485271318
3944.20631	0.485294118
3942.2776	0.484942085
3940.3489	0.485362096
3938.42019	0.48501153
3936.49148	0.485034536
3934.56277	0.485429448
3932.63407	0.485451761
3930.70536	0.485867074
3928.77665	0.485888635
3926.84794	0.485540335
3924.91924	0.48556231
3922.99053	0.485584219
3921.06182	0.485606061
3919.13312	0.485627837
3917.20441	0.485649547
3915.2757	0.485692771
3913.34699	0.484984985
3911.41829	0.484644195
3909.48958	0.484667165
3907.56087	0.485415108
3905.63217	0.485778443
3903.70346	0.486163052
3901.77475	0.486183719
3899.84604	0.485480268
3897.91734	0.485163205
3895.98863	0.485207101
3894.05992	0.485228951
3892.13121	0.485250737
3890.20251	0.485272459
3888.2738	0.484558824
3886.34509	0.484937546
3884.41639	0.485337243
3882.48768	0.485003658
3880.55897	0.48540146
3878.63026	0.484716157
3876.70156	0.484386347
3874.77285	0.484760522
3872.84414	0.484760522
3870.91543	0.485134155
3868.98673	0.484804631
3867.05802	0.484848485
3865.12931	0.485241181
3863.20061	0.484913793
3861.2719	0.48495702
3859.34319	0.48463188
3857.41448	0.484978541
3855.48578	0.485652798
3853.55707	0.485304659
3851.62836	0.484675695
3849.69966	0.484053863
3847.77095	0.483757062
3845.84224	0.484121383
3843.91353	0.48448519
3841.98483	0.484848485
3840.05612	0.484507042
3838.12741	0.484528833
3836.1987	0.48457223
3834.27	0.484615385
3832.34129	0.484298674
3830.41258	0.483646486
3828.48388	0.484027778
3826.55517	0.483714484
3824.62646	0.484407484
3822.69775	0.484407484
3820.76905	0.484429066
3818.84034	0.48447205
3816.91163	0.48415978
3814.98292	0.483184626
3813.05422	0.483584131
3811.12551	0.483276451
3809.1968	0.483959044
3807.2681	0.48329925
3805.33939	0.484002723
3803.41068	0.483673469
3801.48197	0.483695652
3799.55327	0.483739837
3797.62456	0.483783784
3795.69585	0.483827493
3793.76715	0.483870968
3791.83844	0.483243968
3789.90973	0.482943144
3787.98102	0.482965932
3786.05232	0.482988659
3784.12361	0.483355526
3782.1949	0.48337766
3780.26619	0.48372093
3778.33749	0.483764082
3776.40878	0.483146067
3774.48007	0.482849604
3772.55137	0.483190508
3770.62266	0.483530962
3768.69395	0.483234714
3766.76524	0.482939633
3764.83654	0.483300589
3762.90783	0.483006536
3760.97912	0.483028721
3759.05041	0.483050847
3757.12171	0.482758621
3755.193	0.483094928
3753.26429	0.483723958
3751.33559	0.483723958
3749.40688	0.483430799
3747.47817	0.483138781
3745.54946	0.483787289
3743.62076	0.483516484
3741.69205	0.483601286
3739.76334	0.483001924
3737.83464	0.483311938
3735.90593	0.483643361
3733.97722	0.483685221
3732.04851	0.483110261
3730.11981	0.482539683
3728.1911	0.482889734
3726.26239	0.482911392
3724.33368	0.482627922
3722.40498	0.482345523
3720.47627	0.482389937
3718.54756	0.481806775
3716.61886	0.481829574
3714.69015	0.48245614
3712.76144	0.483082707
3710.83273	0.482801751
3708.90403	0.482242991
3706.97532	0.481987578
3705.04661	0.482009926
3703.1179	0.482032218
3701.1892	0.482054455
3699.26049	0.481801357
3697.33178	0.481527094
3695.40308	0.481549815
3693.47437	0.482164822
3691.54566	0.482164822
3689.61695	0.482483098
3687.68825	0.482230392
3685.75954	0.481684982
3683.83083	0.481436397
3681.90213	0.481458967
3679.97342	0.481458967
3678.04471	0.481751825
3676.116	0.48204504
3674.1873	0.481773998
3672.25859	0.481818182
3670.32988	0.481548699
3668.40117	0.481302774
3666.47247	0.481081081
3664.54376	0.481126423
3662.61505	0.481149013
3660.68635	0.481171548
3658.75764	0.481171548
3656.82893	0.481481481
3654.90022	0.480620155
3652.97152	0.481216458
3651.04281	0.481791045
3649.1141	0.482100239
3647.18539	0.48156956
3645.25669	0.481042654
3643.32798	0.480803308
3641.39927	0.480542453
3639.47057	0.480565371
3637.54186	0.480588235
3635.61315	0.480611046
3633.68444	0.480611046
3631.75574	0.480893592
3629.82703	0.480871101
3627.89832	0.480633803
3625.96961	0.480701754
3624.04091	0.480163361
3622.1122	0.480163361
3620.18349	0.480163361
3618.25479	0.48018648
3616.32608	0.479930192
3614.39737	0.479953515
3612.46866	0.480255517
3610.53996	0.480557168
3608.61125	0.480301275
3606.68254	0.480346821
3604.75384	0.479815456
3602.82513	0.47983871
3600.89642	0.479286536
3598.96771	0.479310345
3597.03901	0.479334099
3595.1103	0.479931193
3593.18159	0.479954181
3591.25288	0.479977117
3589.32418	0.479977117
3587.39547	0.479428571
3585.46676	0.479475485
3583.53806	0.478953356
3581.60935	0.478977273
3579.68064	0.479001135
3577.75193	0.479024943
3575.82323	0.478777589
3573.89452	0.478801583
3571.96581	0.479096045
3570.0371	0.479096045
3568.1084	0.479661017
3566.17969	0.479413424
3564.25098	0.478897017
3562.32228	0.479213483
3560.39357	0.478968031
3558.46486	0.478431373
3556.53615	0.479015109
3554.60745	0.478747204
3552.67874	0.47877095
3550.75003	0.478794643
3548.82133	0.47826087
3546.89262	0.478551532
3544.96391	0.478309232
3543.0352	0.47806774
3541.1065	0.478092069
3539.17779	0.478116343
3537.24908	0.477587161
3535.32037	0.477900552
3533.39167	0.477924945
3531.46296	0.477661335
3529.53425	0.477949283
3527.60555	0.47768595
3525.67684	0.477710512
3523.74813	0.477735019
3521.81942	0.477497256
3519.89072	0.47752193
3517.96201	0.47754655
3516.0333	0.477571116
3514.10459	0.47733479
3512.17589	0.47735952
3510.24718	0.477384196
3508.31847	0.477408819
3506.38977	0.477433388
3504.46106	0.477717391
3502.53235	0.477482366
3500.60364	0.477506775
3498.67494	0.477272727
3496.74623	0.477297297
3494.81752	0.477321814
3492.88882	0.476806904
3490.96011	0.476831897
3489.0314	0.476856835
3487.10269	0.47688172
3485.17399	0.476650564
3483.24528	0.476675603
3481.31657	0.476700589
3479.38786	0.476470588
3477.45916	0.476495726
3475.53045	0.476520811
3473.60174	0.47682472
3471.67304	0.476849388
3469.74433	0.476620616
3467.81562	0.476645435
3465.88691	0.476417594
3463.95821	0.476442562
3462.0295	0.476215645
3460.10079	0.47651715
3458.17208	0.476541908
3456.24338	0.476315789
3454.31467	0.476090384
3452.38596	0.476115486
3450.45726	0.476140535
3448.52855	0.476165532
3446.59984	0.475941423
3444.67113	0.475966562
3442.74243	0.475743349
3440.81372	0.476041667
3438.88501	0.475819033
3436.95631	0.476116303
3435.0276	0.475894246
3433.09889	0.475672878
3431.17018	0.475968992
3429.24148	0.475748194
3427.31277	0.475528078
3425.38406	0.475823045
3423.45535	0.475603493
3421.52665	0.475897436
3419.59794	0.475678443
3417.66923	0.475217169
3415.74053	0.475
3413.81182	0.474783495
3411.88311	0.475318066
3409.9544	0.475101626
3408.0257	0.475126904
3406.09699	0.474911303
3404.16828	0.474696356
3402.23957	0.474987367
3400.31087	0.475277497
3398.38216	0.475062972
3396.45345	0.475113122
3394.52475	0.475401606
3392.59604	0.4749499
3390.66733	0.475
3388.73862	0.474550898
3386.80992	0.474838067
3384.88121	0.474626866
3382.9525	0.474913065
3381.0238	0.474962816
3379.09509	0.474752475
3377.16638	0.475037074
3375.23767	0.474827246
3373.30897	0.474384236
3371.38026	0.474667978
3369.45155	0.474459725
3367.52284	0.474252084
3365.59414	0.47453477
3363.66543	0.474327628
3361.73672	0.474377745
3359.80802	0.47417154
3357.87931	0.474452555
3355.9506	0.474246842
3354.02189	0.474296799
3352.09319	0.47409201
3350.16448	0.473887814
3348.23577	0.473684211
3346.30706	0.473963356
3344.37836	0.474013474
3342.44965	0.473810668
3340.52094	0.474088292
3338.59224	0.473885961
3336.66353	0.473684211
3334.73482	0.473734479
3332.80611	0.473533619
3330.87741	0.473809524
3328.9487	0.47338403
3327.01999	0.473659231
3325.09129	0.473459716
3323.16258	0.473734027
3321.23387	0.47331129
3319.30516	0.473584906
3317.37646	0.473386717
3315.44775	0.473659454
3313.51904	0.473239437
3311.59033	0.472820993
3309.66163	0.472871843
3307.73292	0.473143391
3305.80421	0.472947761
3303.87551	0.472998138
3301.9468	0.473048327
3300.01809	0.472634508
3298.08938	0.472904122
3296.16068	0.472491909
3294.23197	0.472760849
3292.30326	0.47281106
3290.37455	0.473078693
3288.44585	0.47266881
3286.51714	0.47293578
3284.58843	0.472985348
3282.65973	0.472793781
3280.73102	0.47284345
3278.80231	0.472437358
3276.8736	0.472487494
3274.9449	0.472083522
3273.01619	0.472348141
3271.08748	0.47239819
3269.15878	0.472448058
3267.23007	0.472710871
3265.30136	0.47230977
3263.37265	0.472122302
3261.44395	0.472172352
3259.51524	0.472222222
3257.58653	0.472035794
3255.65782	0.472085753
3253.72912	0.471900089
3251.80041	0.471950134
3249.8717	0.472
3247.943	0.47225921
3246.01429	0.47251773
3244.08558	0.472123894
3242.15687	0.472173145
3240.22817	0.471989413
3238.29946	0.472038749
3236.37075	0.471648352
3234.44204	0.471698113
3232.51334	0.4717477
3230.58463	0.471797114
3228.65592	0.471615721
3226.72722	0.471665214
3224.79851	0.471279373
3222.8698	0.471534116
3220.94109	0.471583514
3219.01239	0.471632741
3217.08368	0.47124946
3215.15497	0.471299094
3213.22627	0.47112069
3211.29756	0.471170396
3209.36885	0.471219931
3207.44014	0.471067295
3205.51144	0.471318493
3203.58273	0.471367521
3201.65402	0.470989761
3199.72531	0.471239881
3197.79661	0.471288813
3195.8679	0.470912951
3193.93919	0.470962272
3192.01049	0.471011426
3190.08178	0.471060414
3188.15307	0.470886076
3186.22436	0.470935131
3184.29566	0.470563499
3182.36695	0.47061293
3180.43824	0.470662196
3178.50953	0.470711297
3176.58083	0.470760234
3174.65212	0.470391993
3172.72341	0.470441299
3170.79471	0.470074813
3168.866	0.470319635
3166.93729	0.470368835
3165.00858	0.470417873
3163.07988	0.470053697
3161.15117	0.470103093
3159.22246	0.470152326
3157.29376	0.470201397
3155.36505	0.470250308
3153.43634	0.470299058
3151.50763	0.46993865
3149.57893	0.46998775
3147.65022	0.470228385
3145.72151	0.470276873
3143.7928	0.470325203
3141.8641	0.469967532
3139.93539	0.46982584
3138.00668	0.470064725
3136.07798	0.469709208
3134.14927	0.469758065
3132.22056	0.469806763
3130.29185	0.469666533
3128.36315	0.469715203
3126.43444	0.469951923
3124.50573	0.4696
3122.57702	0.469648562
3120.64832	0.46969697
3118.71961	0.469558297
3116.7909	0.469209376
3114.8622	0.469258231
3112.93349	0.469306931
3111.00478	0.469355476
3109.07607	0.469403869
3107.14737	0.469267139
3105.21866	0.4693155
3103.28995	0.469548134
3101.36125	0.469203609
3099.43254	0.469251861
3097.50383	0.468725567
3095.57512	0.468774395
3093.64642	0.468823071
3091.71771	0.4692607
3089.789	0.469308469
3087.86029	0.468786351
3085.93159	0.468834688
3084.00288	0.469064192
3082.07417	0.468725869
3080.14547	0.468774094
3078.21676	0.468641785
3076.28805	0.468689973
3074.35934	0.468558282
3072.43064	0.468223583
3070.50193	0.468272171
3068.57322	0.468499427
3066.64451	0.468547465
3064.71581	0.468595356
3062.7871	0.468643101
3060.85839	0.468512898
3058.92969	0.468181818
3057.00098	0.468229955
3055.07227	0.46810117
3053.14356	0.468149265
3051.21486	0.468197215
3049.28615	0.468421053
3047.35744	0.468093093
3045.42874	0.46814093
3043.50003	0.468188623
3041.57132	0.468236173
3039.64261	0.468283582
3037.71391	0.467783985
3035.7852	0.467831908
3033.85649	0.467879688
3031.92778	0.46772997
3029.99908	0.467777778
3028.07037	0.467455621
3026.14166	0.467503693
3024.21296	0.467551622
3022.28425	0.467403315
3020.35554	0.467451269
3018.42683	0.467499082
3016.49813	0.467718269
3014.56942	0.467399267
3012.64071	0.4670812
3010.712	0.467299963
3008.7833	0.467153285
3006.85459	0.467201166
3004.92588	0.467054969
3002.99718	0.466909091
3001.06847	0.467126771
2999.13976	0.466981132
2997.21105	0.467005076
2995.28235	0.467028986
2993.35364	0.46705286
2991.42493	0.466714906
2989.49623	0.466907776
2987.56752	0.466738973
2985.63881	0.466738973
2983.7101	0.466738973
2981.7814	0.46637744
2979.85269	0.466714906
2977.92398	0.466690804
2975.99527	0.466642495
2974.06657	0.466763531
2972.13786	0.466690936
2970.20915	0.466423358
2968.28045	0.466520307
2966.35174	0.46627566
2964.42303	0.466250917
2962.49432	0.46627566
2960.56562	0.466349671
2958.63691	0.466447848
2956.7082	0.466206395
2954.77949	0.466159971
2952.85079	0.465921385
2950.92208	0.466211359
2948.99337	0.466116888
2947.06467	0.465998568
2945.13596	0.465856275
2943.20725	0.465880672
2941.27854	0.465880672
2939.34984	0.465880672
2937.42113	0.465689778
2935.49242	0.465689778
2933.56372	0.465523401
2931.63501	0.465714286
2929.7063	0.465572601
2927.77759	0.46562166
2925.84889	0.465504979
2923.92018	0.465413267
2921.99147	0.465157411
2920.06276	0.465091678
2918.13406	0.465214336
2916.20535	0.465148862
2914.27664	0.465083799
2912.34794	0.465019144
2910.41923	0.464769177
2908.49052	0.465188777
2906.56181	0.465100207
2904.63311	0.464827586
2902.7044	0.464740282
2900.77569	0.464996568
2898.84698	0.464909278
2896.91828	0.464981209
2894.98957	0.465052847
2893.06086	0.46478394
2891.13216	0.464673913
2889.20345	0.464564259
2887.27474	0.464116452
2885.34603	0.464321948
2883.41733	0.464527027
2881.48862	0.464394195
2879.55991	0.464418212
2877.63121	0.464598786
2875.7025	0.464622642
2873.77379	0.464490071
2871.84508	0.46438172
2869.91638	0.464273734
2867.98767	0.464166109
2866.05896	0.464058843
2864.13025	0.463772955
2862.20155	0.463975984
2860.27284	0.463690873
2858.34413	0.463893511
2856.41543	0.46345515
2854.48672	0.463681592
2852.55801	0.463753724
2850.6293	0.463849455
2848.7006	0.463462804
2846.77189	0.463734821
2844.84318	0.463350785
2842.91447	0.463446475
2840.98577	0.463366981
2839.05706	0.463287849
2837.12835	0.463209076
2835.19965	0.463280492
2833.27094	0.463178295
2831.34223	0.463398904
2829.41352	0.463296845
2827.48482	0.463195114
2825.55611	0.46309371
2823.6274	0.46267222
2821.6987	0.46272
2819.76999	0.463087248
2817.84128	0.462986599
2815.91257	0.46288627
2813.98387	0.462933503
2812.05516	0.462833545
2810.12645	0.462880711
2808.19774	0.4626109
2806.26904	0.462658228
2804.34033	0.462705436
2802.41162	0.462436869
2800.48292	0.462484237
2798.55421	0.462385899
2796.6255	0.462433197
2794.69679	0.462335217
2792.76809	0.462068966
2790.83938	0.462116468
2788.91067	0.462163852
2786.98196	0.462066812
2785.05326	0.462114125
2783.12455	0.461849891
2781.19584	0.461897356
2779.26714	0.461801242
2777.33843	0.461991933
2775.40972	0.461895911
2773.48101	0.461943069
2771.55231	0.461681088
2769.6236	0.461728395
2767.69489	0.461467324
2765.76619	0.461514778
2763.83748	0.461562116
2761.90877	0.461609337
2759.98006	0.461656442
2758.05136	0.461397059
2756.12265	0.461444308
2754.19394	0.461185819
2752.26523	0.461233211
2750.33653	0.461280488
2748.40782	0.461023143
2746.47911	0.46107056
2744.55041	0.461117861
2742.6217	0.46086165
2740.69299	0.460909091
2738.76428	0.460653753
2736.83558	0.46070133
2734.90687	0.460748792
2732.97816	0.46079614
2731.04945	0.460843373
2729.12075	0.460589651
2727.19204	0.460637019
2725.26333	0.460684274
2723.33463	0.460593347
2721.40592	0.460341215
2719.47721	0.46038864
2717.5485	0.460435951
2715.6198	0.460483149
2713.69109	0.460530235
2711.76238	0.460279679
2709.83368	0.460326895
2707.90497	0.460077174
2705.97626	0.460124518
2704.04755	0.46017175
2702.11885	0.4599231
2700.19014	0.459970458
2698.26143	0.460017704
2696.33272	0.459770115
2694.40402	0.459817486
2692.47531	0.459864746
2690.5466	0.459618209
2688.6179	0.459665591
2686.68919	0.459419865
2684.76048	0.459467369
2682.83177	0.459380479
2680.90307	0.459427904
2678.97436	0.459475219
2677.04565	0.459231217
2675.11694	0.45927865
2673.18824	0.459325973
2671.25953	0.459373186
2669.33082	0.459130435
2667.40212	0.459177765
2665.47341	0.459068557
2663.5447	0.458983247
2661.61599	0.458742066
2659.68729	0.458789625
2657.75858	0.458837075
2655.82987	0.458596895
2653.90117	0.458644457
2651.97246	0.45869191
2650.04375	0.458739255
2648.11504	0.458500286
2646.18634	0.45841669
2644.25763	0.458464174
2642.32892	0.458511548
2640.40021	0.458273996
2638.47151	0.458321479
2636.5428	0.458214895
2634.61409	0.458262351
2632.68539	0.458309699
2630.75668	0.458356941
2628.82797	0.458121109
2626.89926	0.458168457
2624.97056	0.458215697
2623.04185	0.458133634
2621.11314	0.457899183
2619.18443	0.457946554
2617.25573	0.457712841
2615.32702	0.457760314
2613.39831	0.457527334
2611.46961	0.457446809
2609.5409	0.457342657
2607.61219	0.457390332
2605.68348	0.457310268
2603.75478	0.45735786
2601.82607	0.457405345
2599.89736	0.457174638
2597.96865	0.457349264
2596.03995	0.457396614
2594.11124	0.45716662
2592.18253	0.457087486
2590.25383	0.457134956
2588.32512	0.45718232
2586.39641	0.456953642
2584.4677	0.457001103
2582.539	0.456922653
2580.61029	0.456695078
2578.68158	0.456742653
2576.75288	0.456790123
2574.82417	0.45683749
2572.89546	0.456611005
2570.96675	0.456533625
2569.03805	0.456581103
2567.10934	0.456355701
2565.18063	0.45640327
2563.25192	0.456450735
2561.32322	0.456498097
2559.39451	0.456273764
2557.4658	0.456321215
2555.5371	0.45624492
2553.60839	0.456292287
2551.67968	0.456069208
2549.75097	0.456116662
2547.82227	0.455771305
2545.89356	0.455818966
2543.96485	0.455597417
2542.03614	0.455645161
2540.10744	0.455692803
2538.17873	0.455740343
2536.25002	0.455787781
2534.32132	0.455713139
2532.39261	0.455760492
2530.4639	0.455419114
2528.53519	0.455466667
2526.60649	0.455247736
2524.67778	0.45529537
2522.74907	0.455077087
2520.82037	0.455124801
2518.89166	0.455172414
2516.96295	0.454834437
2515.03424	0.454882244
2513.10554	0.45492995
2511.17683	0.454977555
2509.24812	0.455025059
2507.31941	0.455072464
2505.39071	0.455119768
2503.462	0.455047319
2501.53329	0.455094538
2499.60459	0.454879328
2497.67588	0.45480744
2495.74717	0.454593038
2493.81846	0.454640523
2491.88976	0.454687908
2489.96105	0.454355764
2488.03234	0.454403335
2486.10363	0.454450807
2484.17493	0.45449818
2482.24622	0.454167749
2480.31751	0.454215305
2478.38881	0.454262762
2476.4601	0.454051256
2474.53139	0.453981386
2472.60268	0.454028926
2470.67398	0.453959247
2468.74527	0.454006699
2466.81656	0.453796654
2464.88786	0.453844176
2462.95915	0.453634729
2461.03044	0.453565931
2459.10173	0.453613532
2457.17303	0.453544919
2455.24432	0.453336743
2453.31561	0.453384419
2451.3869	0.453431998
2449.4582	0.453363914
2447.52949	0.453411405
2445.60078	0.453204476
2443.67208	0.453136906
2441.74337	0.453184471
2439.81466	0.453117081
2437.88595	0.452911392
2435.95725	0.452959029
2434.02854	0.453006569
2432.09983	0.452687358
2430.17112	0.452735064
2428.24242	0.452668681
2426.31371	0.452716298
2424.385	0.452763819
2422.4563	0.452697616
2420.52759	0.452745049
2418.59888	0.452428643
2416.67017	0.452476238
2414.74147	0.452273863
2412.81276	0.452208635
2410.88405	0.452256295
2408.95535	0.452054795
2407.02664	0.452102513
2405.09793	0.452037773
2403.16922	0.452085402
2401.24052	0.452020828
2399.31181	0.452068368
2397.3831	0.451868349
2395.45439	0.451804251
2393.52569	0.451851852
2391.59698	0.451899359
2389.66827	0.451946772
2387.73957	0.451636722
2385.81086	0.451684288
2383.88215	0.451620825
2381.95344	0.451422964
2380.02474	0.451470588
2378.09603	0.451162791
2376.16732	0.451210565
2374.23861	0.451258246
2372.30991	0.451305834
2370.3812	0.451353328
2368.45249	0.451157125
2366.52379	0.451204673
2364.59508	0.45114244
2362.66637	0.450947062
2360.73766	0.450885278
2358.80896	0.450581395
2356.88025	0.450871249
2354.95154	0.450809766
2353.02284	0.450748431
2351.09413	0.450554752
2349.16542	0.450493857
2347.23671	0.450541516
2345.30801	0.450480769
2343.3793	0.45063656
2341.45059	0.450443964
2339.52188	0.450491489
2337.59318	0.450191571
2335.66447	0.450131547
2333.73576	0.450071667
2331.80706	0.450119332
2329.87835	0.450059595
2327.94964	0.45034532
2326.02093	0.450047574
2324.09223	0.449988121
2322.16352	0.449928809
2320.23481	0.449739213
2318.3061	0.449680322
2316.3774	0.44962157
2314.44869	0.449799197
2312.51998	0.44984659
2310.59128	0.449552098
2308.66257	0.449599623
2306.73386	0.449306046
2304.80515	0.449353702
2302.87645	0.449295775
2300.94774	0.449108818
2299.01903	0.4490513
2297.09033	0.449098994
2295.16162	0.449041608
2293.23291	0.449089211
2291.3042	0.449136724
2289.3755	0.448951049
2287.44679	0.448998603
2285.51808	0.448813402
2283.58937	0.448756681
2281.66067	0.448700093
2279.73196	0.44851577
2277.80325	0.448563485
2275.87455	0.44850729
2273.94584	0.448554913
2272.01713	0.448371448
2270.08842	0.448315644
2268.15972	0.448363301
2266.23101	0.448180562
2264.3023	0.448355187
2262.37359	0.448402666
2260.44489	0.448117539
2258.51618	0.448165138
2256.58747	0.448109966
2254.65877	0.447826087
2252.73006	0.447771429
2250.80135	0.447819137
2248.87264	0.447764599
2246.94394	0.447710185
2245.01523	0.447655894
2243.08652	0.447601728
2241.15782	0.447320618
2239.22911	0.447266954
2237.3004	0.447112118
2235.37169	0.447285068
2233.44299	0.447231638
2231.51428	0.447077409
2229.58557	0.447249775
2227.65686	0.447196577
2225.72816	0.4471435
2223.79945	0.446865873
2221.87074	0.446813285
2219.94204	0.446760816
2218.01333	0.446708464
2216.08462	0.446656229
2214.15591	0.446727719
2212.22721	0.446675591
2210.2985	0.446623579
2208.36979	0.446571683
2206.44108	0.446519902
2204.51238	0.446567429
2202.58367	0.446515757
2200.65496	0.446341463
2198.72626	0.446290144
2196.79755	0.446238938
2194.86884	0.446065429
2192.94013	0.446014573
2191.01143	0.445963829
2189.08272	0.445913197
2187.15401	0.4457407
2185.22531	0.445788432
2183.2966	0.445518453
2181.36789	0.445566286
2179.43918	0.445735584
2177.51048	0.445783133
2175.58177	0.445733042
2173.65306	0.44568306
2171.72435	0.445633188
2169.79565	0.445462478
2167.86694	0.445510026
2165.93823	0.445460483
2164.00953	0.445290407
2162.08082	0.445241199
2160.15211	0.444975038
2158.2234	0.445239644
2156.2947	0.445287107
2154.36599	0.445117991
2152.43728	0.445069204
2150.50857	0.444996758
2148.57987	0.444804493
2146.65116	0.444900605
2144.72245	0.444804493
2142.79375	0.444875944
2140.86504	0.444779333
2138.93633	0.444563816
2137.00762	0.444730629
2135.07892	0.444468268
2133.15021	0.444515853
2131.2215	0.444468222
2129.2928	0.444325711
2127.36409	0.444278395
2125.43538	0.444231179
2123.50667	0.444278713
2121.57797	0.444231588
2119.64926	0.444184563
2117.72055	0.444231995
2115.79184	0.444185059
2113.86314	0.444138223
2111.93443	0.444091487
2110.00572	0.444044849
2108.07702	0.4439045
2106.14831	0.443858168
2104.2196	0.443601096
2102.29089	0.443555181
2100.36219	0.443719756
2098.43348	0.443673813
2096.50477	0.443627966
2094.57606	0.443582215
2092.64736	0.44353656
2090.71865	0.443700293
2088.78994	0.443561873
2086.86124	0.443516392
2084.93253	0.443378519
2083.00382	0.443333333
2081.07511	0.443196005
2079.14641	0.443358969
2077.2177	0.443313953
2075.28899	0.443177105
2073.36029	0.442925212
2071.43158	0.442880795
2069.50287	0.442721257
2067.57416	0.442860095
2065.64546	0.442815855
2063.71675	0.442589157
2061.78804	0.442568958
2059.85933	0.442639803
2057.93063	0.442710472
2056.00192	0.442666667
2054.07321	0.442532268
2052.14451	0.442488743
2050.2158	0.442445308
2048.28709	0.442401961
2046.35838	0.442358702
2044.42968	0.442315532
2042.50097	0.442476074
2040.57226	0.442432872
2038.64355	0.442299878
2036.71485	0.442256951
2034.78614	0.441921751
2032.85743	0.442058347
2030.92873	0.441879303
2029.00002	0.441813398
2027.07131	0.441794665
2025.1426	0.441686844
2023.2139	0.441757356
2021.28519	0.441715321
2019.35648	0.441561054
2017.42778	0.441519293
2015.49907	0.441477615
2013.57036	0.441636582
2011.64165	0.44139451
2009.71295	0.441353082
2007.78424	0.441311738
2005.85553	0.441270475
2003.92682	0.441229296
2001.99812	0.44107677
2000.06941	0.441035857
1998.1407	0.440995025
1996.212	0.441041957
1994.28329	0.441088814
1992.35458	0.441024623
1990.42587	0.440983932
1988.49717	0.440855954
1986.56846	0.440815519
1984.63975	0.440664557
1982.71104	0.440711462
1980.78234	0.44047384
1978.85363	0.440520813
1976.92492	0.440480883
1974.99622	0.440527767
1973.06751	0.440291167
1971.1388	0.440338117
1969.21009	0.440384993
1967.28139	0.440235525
1965.35268	0.44
1963.42397	0.44002352
1961.49527	0.439866588
1959.56656	0.439882122
1957.63785	0.439866588
1955.70914	0.439773172
1953.78044	0.439804878
1951.85173	0.439680374
1949.92302	0.439641745
1947.99431	0.43960319
1946.06561	0.439370385
1944.1369	0.439502816
1942.20819	0.439549777
1940.27949	0.439534884
1938.35078	0.439520031
1936.42207	0.439481825
1934.49336	0.439250531
1932.56466	0.439212659
1930.63595	0.438982071
1928.70724	0.439029089
1926.77853	0.438883542
1924.84983	0.439015006
1922.92112	0.438869666
1920.99241	0.438808838
1919.06371	0.438940092
1917.135	0.438902743
1915.20629	0.438804827
1913.27758	0.438599847
1911.34888	0.438730644
1909.42017	0.438586437
1907.49146	0.438549618
1905.56276	0.438429279
1903.63405	0.438392687
1901.70534	0.438249286
1899.77663	0.438296254
1897.84793	0.438153145
1895.91922	0.438283327
1893.99051	0.438140417
1892.0618	0.438187334
1890.1331	0.438127724
1888.20439	0.43790231
1886.27568	0.437783661
1884.34698	0.437665281
1882.41827	0.437523594
1880.48956	0.437570728
1878.56085	0.437617791
1876.63215	0.43747646
1874.70344	0.437523523
1872.77473	0.437464736
1870.84602	0.437464736
1868.91732	0.437382475
1866.98861	0.437370892
1865.0599	0.437382827
1863.1312	0.437265918
1861.20249	0.437231057
1859.27378	0.437091045
1857.34507	0.437056406
1855.41637	0.43683523
1853.48766	0.436800895
1851.55895	0.436847988
1849.63025	0.436871508
1847.70154	0.436871508
1845.77283	0.436847988
1843.84412	0.436895011
1841.91542	0.436640654
1839.98671	0.4365727
1838.058	0.436457947
1836.12929	0.436504998
1834.20059	0.436447734
1832.27188	0.436447734
1830.34317	0.436632747
1828.41447	0.436414048
1826.48576	0.436380425
1824.55705	0.436266372
1822.62834	0.436072218
1820.69964	0.435958778
1818.77093	0.436005885
1816.84222	0.435949274
1814.91351	0.435892726
1812.98481	0.435996327
1811.0561	0.435916269
1809.12739	0.435963303
1807.19869	0.435747021
1805.26998	0.43577057
1803.34127	0.43585044
1801.41256	0.435747021
1799.48386	0.43585044
1797.55515	0.435794101
1795.62644	0.435690729
1793.69774	0.435643564
1791.76903	0.43554007
1789.84032	0.435427734
1787.91161	0.435291964
1785.98291	0.435371659
1784.0542	0.435268266
1782.12549	0.435085149
1780.19678	0.435005492
1778.26808	0.435005492
1776.33937	0.434981685
1774.41066	0.435173299
1772.48196	0.43520558
1770.55325	0.435125711
1768.62454	0.434830431
1766.69583	0.434798535
1764.76713	0.434822409
1762.83842	0.434878183
1760.90971	0.434750733
1758.981	0.434647113
1757.0523	0.434599156
1755.12359	0.434710744
1753.19488	0.434750598
1751.26618	0.434766562
1749.33747	0.434854925
1747.40876	0.434726331
1745.48005	0.434573385
1743.55135	0.434581171
1741.62264	0.434484039
1739.69393	0.434330299
1737.76523	0.434362216
1735.83652	0.434612519
1733.90781	0.434563758
1731.9791	0.434313361
1730.0504	0.434032288
1728.12169	0.433888889
1726.19298	0.433906452
1724.26427	0.433899557
1722.33557	0.43378827
1720.40686	0.43378827
1718.47815	0.43386829
1716.54945	0.433861459
1714.62074	0.43379247
1712.69203	0.433540828
1710.76332	0.433321155
1708.83462	0.433315088
1706.90591	0.433363719
1704.9772	0.433515483
1703.04849	0.433436533
1701.11979	0.433594462
1699.19108	0.433509187
1697.26237	0.433315188
1695.33367	0.433122172
1693.40496	0.43295434
1691.47625	0.432817003
1689.54754	0.432763276
1687.61884	0.432919143
1685.69013	0.43292463
1683.76142	0.43292463
1681.83272	0.432865371
1679.90401	0.432548949
1677.9753	0.432471264
1676.04659	0.432447
1674.11789	0.432369319
1672.18918	0.432393607
1670.26047	0.432471264
1668.33176	0.432185145
1666.40306	0.432025793
1664.47435	0.431948424
1662.54564	0.431948424
1660.61694	0.431818182
1658.68823	0.431663685
1656.75952	0.431643075
1654.83081	0.432038835
1652.90211	0.432145428
1650.9734	0.431830429
1649.04469	0.431646932
1647.11598	0.431544949
1645.18728	0.431362007
1643.25857	0.431305903
1641.32986	0.43117626
1639.40116	0.431049902
1637.47245	0.431207453
1635.54374	0.431003584
1633.61503	0.430846305
1631.68633	0.430791213
1629.75762	0.430892857
1627.82891	0.430868167
1625.90021	0.43084346
1623.9715	0.430741734
1622.04279	0.430766482
1620.11408	0.430434006
1618.18538	0.430409148
1616.25667	0.430510897
1614.32796	0.430508475
1612.39925	0.430226341
1610.47055	0.430226341
1608.54184	0.430226341
1606.61313	0.430251203
1604.68443	0.430097952
1602.75572	0.430122841
1600.82701	0.430147713
1598.8983	0.430096051
1596.9696	0.429943101
1595.04089	0.430069309
1593.11218	0.430118984
1591.18347	0.430015966
1589.25477	0.429913167
1587.32606	0.429709632
1585.39735	0.429683354
1583.46865	0.429833864
1581.53994	0.429706817
1579.61123	0.429807523
1577.68252	0.429782724
1575.75382	0.429655781
1573.82511	0.429679239
1571.8964	0.429477021
1569.96769	0.429653108
1568.03899	0.429475906
1566.11028	0.429399368
1564.18157	0.42934878
1562.25287	0.429450009
1560.32416	0.429704017
1558.39545	0.429679239
1556.46674	0.429425207
1554.53804	0.429197336
1552.60933	0.429046369
1550.68062	0.429020979
1548.75192	0.428945988
1546.82321	0.42892114
1544.8945	0.429071804
1542.96579	0.429298246
1541.03709	0.429173249
1539.10838	0.429122131
1537.17967	0.428895877
1535.25096	0.428720991
1533.32226	0.428671085
1531.39355	0.428571429
1529.46484	0.42862117
1527.53614	0.428670963
1525.60743	0.428621231
1523.67872	0.428621291
1521.75001	0.428796086
1519.82131	0.428571429
1517.8926	0.428471738
1515.96389	0.428446923
1514.03518	0.428397213
1512.10648	0.428546532
1510.17777	0.428546501
1508.24906	0.428621352
1506.32036	0.428496595
1504.39165	0.428272981
1502.46294	0.428075052
1500.53423	0.428050052
1498.60553	0.427974948
1496.67682	0.428049417
1494.74811	0.427851182
1492.81941	0.42767733
1490.8907	0.427850305
1488.96199	0.427825178
1487.03328	0.427726561
1485.10458	0.427553857
1483.17587	0.427405349
1481.24716	0.42747959
1479.31845	0.427503477
1477.38975	0.427476928
1475.46104	0.427574171
1473.53233	0.427522294
1471.60363	0.427396781
1469.67492	0.427322022
1467.74621	0.427271136
1465.8175	0.427269541
1463.8888	0.427244039
1461.96009	0.427143609
1460.03138	0.427090654
1458.10267	0.427263121
1456.17397	0.427363973
1454.24526	0.427015633
1452.31655	0.426718093
1450.38785	0.426743778
1448.45914	0.42649378
1446.53043	0.426545264
1444.60172	0.426347096
1442.67302	0.426223776
1440.74431	0.426372858
1438.8156	0.426444834
1436.8869	0.42661757
1434.95819	0.42649378
1433.02948	0.426395939
1431.10077	0.426395939
1429.17207	0.4262209
1427.24336	0.4262209
1425.31465	0.426269702
1423.38594	0.426192146
1421.45724	0.426238145
1419.52853	0.426460239
1417.59982	0.426359317
1415.67112	0.426059434
1413.74241	0.425782624
1411.8137	0.425730377
1409.88499	0.425753039
1407.95629	0.42577574
1406.02758	0.425798482
1404.09887	0.425922656
1402.17016	0.426047005
1400.24146	0.426070039
1398.31275	0.425942311
1396.38404	0.425942311
1394.45534	0.42581786
1392.52663	0.425644649
1390.59792	0.425772286
1388.66921	0.425821265
1386.74051	0.425719837
1384.8118	0.425317797
1382.88309	0.425269102
1380.95439	0.425295467
1379.02568	0.425396825
1377.09697	0.425471865
1375.16826	0.425622022
1373.23956	0.42554693
1371.31085	0.425396825
1369.38214	0.425246827
1367.45343	0.425171867
1365.52473	0.425246827
1363.59602	0.425321813
1361.66731	0.425273176
1359.73861	0.425074837
1357.8099	0.424802111
1355.88119	0.424753868
1353.95248	0.424780316
1352.02378	0.424732127
1350.09507	0.424433913
1348.16636	0.424561404
1346.23765	0.424513414
1344.30895	0.424465475
1342.38024	0.424391099
1340.45153	0.424391099
1338.52283	0.424242424
1336.59412	0.424221211
1334.66541	0.424125874
1332.7367	0.424104803
1330.808	0.424057263
1328.87929	0.423835282
1326.95058	0.423687424
1325.02188	0.423687424
1323.09317	0.423687424
1321.16446	0.423586881
1319.23575	0.423560209
1317.30705	0.423459592
1315.37834	0.423432862
1313.44963	0.423406114
1311.52092	0.423305381
1309.59222	0.423204613
1307.66351	0.42310381
1305.7348	0.422976045
1303.8061	0.423023093
1301.87739	0.422895151
1299.94868	0.422841128
1298.01997	0.422962314
1296.09127	0.422908262
1294.16256	0.422678603
1292.23385	0.422522839
1290.30514	0.422616954
1288.37644	0.422460834
1286.44773	0.422378855
1284.51902	0.422296701
1282.59032	0.42246556
1280.66161	0.422355854
1278.7329	0.422245838
1276.80419	0.422107878
1274.87549	0.422044444
1272.94678	0.421952958
1271.01807	0.421983914
1269.08937	0.422034811
1267.16066	0.421849648
1265.23195	0.42173913
1263.30324	0.421713039
1261.37454	0.42159898
1259.44583	0.421474067
1257.51712	0.421387073
1255.58841	0.421224194
1253.65971	0.421185828
1251.731	0.421062139
1249.80229	0.420881503
1247.87359	0.420824295
1245.94488	0.420738328
1244.01617	0.420728393
1242.08746	0.42053701
1240.15876	0.420268798
1238.23005	0.420334667
1236.30134	0.420218579
1234.37263	0.419996351
1232.44393	0.419879408
1230.51522	0.419838946
1228.58651	0.419615032
1226.65781	0.419573999
1224.7291	0.419348906
1222.80039	0.419123066
1220.87168	0.418973791
1218.94298	0.418823964
1217.01427	0.418596036
1215.08556	0.418337045
1213.15686	0.418185199
1211.22815	0.418002236
1209.29944	0.417927171
1207.37073	0.417742841
1205.44203	0.417557681
1203.51332	0.417371686
1201.58461	0.41718485
1199.6559	0.416997167
1197.7272	0.416619345
1195.79849	0.41642952
1193.86978	0.416238829
1191.94108	0.416047265
1190.01237	0.415775401
1188.08366	0.415278576
1186.15495	0.415050873
1184.22625	0.41490181
1182.29754	0.414718949
1180.36883	0.414374274
1178.44012	0.414013975
1176.51142	0.413960723
1174.58271	0.413712505
1172.654	0.413429631
1170.7253	0.413226374
1168.79659	0.412826044
1166.86788	0.412504915
1164.93917	0.412379263
1163.01047	0.411973918
1161.08176	0.411648177
1159.15305	0.411239079
1157.22435	0.410909815
1155.29564	0.410660811
1153.36693	0.410492591
1151.43822	0.410122515
1149.50952	0.409631271
1147.58081	0.409219571
1145.6521	0.409007912
1143.72339	0.40850804
1141.79469	0.408004901
1139.86598	0.407452907
1137.93727	0.406859725
1136.00857	0.406262876
1134.07986	0.40583006
1132.15115	0.405394191
1130.22244	0.404623074
1128.29374	0.404015056
1126.36503	0.403401932
1124.43632	0.402953586
1122.50761	0.402289106
1120.57891	0.40170394
1118.6502	0.401198887
1116.72149	0.400473424
1114.79279	0.399826915
1112.86408	0.398955841
1110.93537	0.398468271
1109.00666	0.397754788
1107.07796	0.397208684
1105.14925	0.396478716
1103.22054	0.39573991
1101.29184	0.395264938
1099.36313	0.394742805
1097.43442	0.394084187
1095.50571	0.393150685
1093.57701	0.392489123
1091.6483	0.39182361
1089.71959	0.391384474
1087.79088	0.390801941
1085.86218	0.39025522
1083.93347	0.389794967
1082.00476	0.389187924
1080.07606	0.388484136
1078.14735	0.38791883
1076.21864	0.387257224
1074.28993	0.386644487
1072.36123	0.385989993
1070.43252	0.385240029
1068.50381	0.384486474
1066.5751	0.383821411
1064.6464	0.383152828
1062.71769	0.382331644
1060.78898	0.381655373
1058.86028	0.381033228
1056.93157	0.38028169
1055.00286	0.379436072
1053.07415	0.37864786
1051.14545	0.377858881
1049.21674	0.377160945
1047.28803	0.376218324
1045.35933	0.375518166
1043.43062	0.374572962
1041.50191	0.373626374
1039.5732	0.372769494
1037.6445	0.371819961
1035.71579	0.371204701
1033.78708	0.370252389
1031.85837	0.369543894
1029.92967	0.368588957
1028.00096	0.367697595
1026.07225	0.366625767
1024.14355	0.365620402
1022.21484	0.364527193
1020.28613	0.363436123
1018.35742	0.362591687
1016.42872	0.361416361
1014.50001	0.359912217
1012.5713	0.358568647
1010.64259	0.357385811
1008.71389	0.356363636
1006.78518	0.355189935
1004.85647	0.354035766
1002.92777	0.352728151
1000.99906	0.351351351
999.07035	0.349819059
997.14164	0.348371532
995.21294	0.347007722
993.28423	0.345568703
991.35552	0.344210781
989.42682	0.342933204
987.49811	0.341575758
985.5694	0.340136054
983.64069	0.338611449
981.71199	0.336999022
979.78328	0.335540839
977.85457	0.334072432
975.92586	0.332590943
973.99716	0.331344768
972.06845	0.330172199
970.13974	0.328492739
968.21104	0.326971371
966.28233	0.325528701
964.35362	0.324078748
962.42491	0.322368421
960.49621	0.320730779
958.5675	0.319083969
956.63879	0.317589992
954.71008	0.316167051
952.78138	0.314895807
950.85267	0.313178295
948.92396	0.311347702
946.99526	0.309480282
945.06655	0.30809674
943.13784	0.306592534
941.20913	0.304962647
939.28043	0.303201507
937.35172	0.301574376
935.42301	0.300082214
933.49431	0.298561151
931.5656	0.297010338
929.63689	0.295460953
927.70818	0.293799772
925.77948	0.292228276
923.85077	0.290546401
921.92206	0.288837074
919.99335	0.287184009
918.06465	0.285587189
916.13594	0.2839617
914.20723	0.282477341
912.27853	0.280744583
910.34982	0.279148674
908.42111	0.277379095
906.4924	0.276058117
904.5637	0.274704189
902.63499	0.273139159
900.70628	0.271685761
898.77757	0.270171958
896.84887	0.269115192
894.92016	0.267700607
892.99145	0.266439523
891.06275	0.264807163
889.13404	0.263487644
887.20533	0.262231609
885.27662	0.260854093
883.34792	0.259445844
881.41921	0.258099745
879.4905	0.256532941
877.5618	0.255580357
875.63309	0.254695718
873.70438	0.253601213
871.77567	0.252579289
869.84697	0.251058914
867.91826	0.250193949
865.98955	0.249316139
864.06084	0.248425197
862.13214	0.247520825
860.20343	0.246504195
858.27472	0.245472837
856.34602	0.244732577
854.41731	0.243982048
852.4886	0.244042728
850.55989	0.243489045
848.63119	0.242827443
846.70248	0.242056856
844.77377	0.241799832
842.84506	0.241335587
840.91636	0.24086661
838.98765	0.240495515
837.05894	0.240017175
835.13024	0.239965473
833.20153	0.240242845
831.27282	0.239982578
829.34411	0.24005247
827.41541	0.240333919
825.4867	0.240618102
823.55799	0.241011984
821.62929	0.241748439
819.70058	0.241935484
817.77187	0.242465137
815.84316	0.243108902
813.91446	0.243304585
811.98575	0.244525547
810.05704	0.245300321
808.12833	0.246082949
806.19963	0.247222222
804.27092	0.248605948
802.34221	0.25034965
800.41351	0.251751518
798.4848	0.253389434
796.55609	0.255259467
794.62738	0.257009346
792.69868	0.259103641
790.76997	0.261660448
788.84126	0.263623661
786.91255	0.265828678
784.98385	0.267906977
783.05514	0.271036727
781.12643	0.274291027
779.19773	0.277881041
777.26902	0.280872795
775.34031	0.283990719
773.4116	0.287303058
771.4829	0.290471785
769.55419	0.293764434
767.62548	0.297509225
765.69678	0.301382488
763.76807	0.305248619
761.83936	0.308647654
759.91065	0.312327507
757.98195	0.31600736
756.05324	0.319374137
754.12453	0.322432059
752.19582	0.325796031
750.26712	0.329020333
748.33841	0.332407407
746.4097	0.33549884
744.481	0.338296882
742.55229	0.341110593
740.62358	0.343940103
738.69487	0.346785547
736.76617	0.349811676
734.83746	0.352385451
732.90875	0.35467046
730.98004	0.356496906
729.05134	0.358337315
727.12263	0.36084453
725.19392	0.362759286
723.26522	0.364517693
721.33651	0.366293229
719.4078	0.36777669
717.47909	0.369768587
715.55039	0.371287129
713.62168	0.3728223
711.69297	0.373560341
709.76427	0.375
707.83556	0.375443937
705.90685	0.37691522
703.97814	0.377892031
702.04944	0.378881988
700.12073	0.379166667
698.19202	0.380178291
696.26331	0.380348653
694.33461	0.380521554
692.4059	0.380160858
690.47719	0.381081081
688.54849	0.38147139
686.61978	0.382627817
684.69107	0.383120489
682.76236	0.383408072
680.83366	0.383484163
678.90495	0.383561644
676.97624	0.383640553
675.04753	0.383944154
673.11883	0.383666275
671.19012	0.383976261
669.26141	0.383693046
667.33271	0.384009691
665.404	0.383486239
663.47529	0.383807169
661.54658	0.384134916
659.61788	0.384227129
657.68917	0.384566327
655.76046	0.384912959
653.83176	0.385016287
651.90305	0.384463463
649.97434	0.38482024
648.04563	0.385185185
646.11693	0.38665759
644.18822	0.386675824
642.25951	0.386694387
640.3308	0.386713287
638.4021	0.38700565
636.47339	0.3875803
634.54468	0.387887527
632.61598	0.388037929
630.68727	0.387453875
628.75856	0.386686612
626.82985	0.386656558
624.90115	0.387096774
622.97244	0.386770428
621.04373	0.386130812
619.11502	0.386272945
617.18632	0.386418755
615.25761	0.385936222
613.3289	0.385313531
611.4002	0.384871155
609.47149	0.385259631
607.54278	0.385135135
605.61407	0.385860307
603.68537	0.386266094
601.75666	0.387348354
