4999.20917	0.280373832
4997.28046	0.279069767
4995.35176	0.278422274
4993.42305	0.277777778
4991.49434	0.277136259
4989.56564	0.278801843
4987.63693	0.27816092
4985.70822	0.277522936
4983.77951	0.276887872
4981.85081	0.276255708
4979.9221	0.275626424
4977.99339	0.277272727
4976.06468	0.276643991
4974.13598	0.276643991
4972.20727	0.278280543
4970.27856	0.277027027
4968.34986	0.276404494
4966.42115	0.275784753
4964.49244	0.275167785
4962.56373	0.276785714
4960.63503	0.276169265
4958.70632	0.275555556
4956.77761	0.274944568
4954.8489	0.276548673
4952.9202	0.27593819
4950.99149	0.275330396
4949.06278	0.276923077
4947.13408	0.276315789
4945.20537	0.27571116
4943.27666	0.27510917
4941.34795	0.274509804
4939.41925	0.276086957
4937.49054	0.275488069
4935.56183	0.274891775
4933.63313	0.276457883
4931.70442	0.275862069
4929.77571	0.275268817
4927.847	0.274678112
4925.9183	0.274089936
4923.98959	0.272921109
4922.06088	0.274468085
4920.13217	0.274468085
4918.20347	0.273305085
4916.27476	0.274841438
4914.34605	0.274261603
4912.41735	0.275789474
4910.48864	0.275210084
4908.55993	0.274633124
4906.63122	0.274058577
4904.70252	0.272916667
4902.77381	0.272349272
4900.8451	0.271784232
4898.91639	0.273291925
4896.98769	0.273291925
4895.05898	0.272727273
4893.13027	0.272164948
4891.20157	0.273100616
4889.27286	0.272540984
4887.34415	0.27402863
4885.41544	0.273469388
4883.48674	0.272912424
4881.55803	0.272357724
4879.62932	0.271805274
4877.70062	0.271255061
4875.77191	0.270707071
4873.8432	0.272177419
4871.91449	0.271084337
4869.98579	0.27254509
4868.05708	0.272
4866.12837	0.270916335
4864.19966	0.270377734
4862.27096	0.271825397
4860.34225	0.271287129
4858.41354	0.270750988
4856.48484	0.269685039
4854.55613	0.269685039
4852.62742	0.271119843
4850.69871	0.270058708
4848.77001	0.26953125
4846.8413	0.269005848
4844.91259	0.270428016
4842.98388	0.269902913
4841.05518	0.269379845
4839.12647	0.27027027
4837.19776	0.269749518
4835.26906	0.269230769
4833.34035	0.268714012
4831.41164	0.270114943
4829.48293	0.26959847
4827.55423	0.268571429
4825.62552	0.268060837
4823.69681	0.269449715
4821.76811	0.268939394
4819.8394	0.268431002
4817.91069	0.269811321
4815.98198	0.269303202
4814.05328	0.268292683
4812.12457	0.267790262
4810.19586	0.26728972
4808.26715	0.268156425
4806.33845	0.267657993
4804.40974	0.269016698
4802.48103	0.27037037
4800.55233	0.26987061
4798.62362	0.267527675
4796.69491	0.266544118
4794.7662	0.267889908
4792.8375	0.267399267
4790.90879	0.268738574
4788.98008	0.268248175
4787.05137	0.267272727
4785.12267	0.268602541
4783.19396	0.268115942
4781.26525	0.267631103
4779.33655	0.266666667
4777.40784	0.26618705
4775.47913	0.267504488
4773.55042	0.266547406
4771.62172	0.266071429
4769.69301	0.267379679
4767.7643	0.266903915
4765.8356	0.267730496
4763.90689	0.267256637
4761.97818	0.266784452
4760.04947	0.266313933
4758.12077	0.265377856
4756.19206	0.266666667
4754.26335	0.26619965
4752.33464	0.265270506
4750.40594	0.266550523
4748.47723	0.266086957
4746.54852	0.265164645
4744.61982	0.264705882
4742.69111	0.264248705
4740.7624	0.265517241
4738.83369	0.264604811
4736.90499	0.26369863
4734.97628	0.263247863
4733.04757	0.264505119
4731.11886	0.264054514
4729.19016	0.264855688
4727.26145	0.26440678
4725.33274	0.263959391
4723.40404	0.263513514
4721.47533	0.264755481
4719.54662	0.263865546
4717.61791	0.263422819
4715.68921	0.262981575
4713.7605	0.264214047
4711.83179	0.263333333
4709.90308	0.264559068
4707.97438	0.263681592
4706.04567	0.263245033
4704.11696	0.262376238
4702.18826	0.261943987
4700.25955	0.263157895
4698.33084	0.26272578
4696.40213	0.263502455
4694.47343	0.262642741
4692.54472	0.262214984
4690.61601	0.263414634
4688.68731	0.262560778
4686.7586	0.262135922
4684.82989	0.263327948
4682.90118	0.262479871
4680.97248	0.262057878
4679.04377	0.261217949
4677.11506	0.2624
4675.18635	0.261980831
4673.25765	0.262738854
4671.32894	0.262321145
4669.40023	0.261489699
4667.47153	0.261075949
4665.54282	0.260663507
4663.61411	0.261829653
4661.6854	0.261006289
4659.7567	0.261755486
4657.82799	0.261345853
4655.89928	0.2609375
4653.97057	0.260530421
4652.04187	0.261275272
4650.11316	0.260465116
4648.18445	0.26006192
4646.25575	0.261205564
4644.32704	0.260400616
4642.39833	0.26
4640.46962	0.259202454
4638.54092	0.258805513
4636.61221	0.259541985
4634.6835	0.259146341
4632.7548	0.258751903
4630.82609	0.259484067
4628.89738	0.259090909
4626.96867	0.2602118
4625.03997	0.259426848
4623.11126	0.260542169
4621.18255	0.25975976
4619.25384	0.258982036
4617.32514	0.258594918
4615.39643	0.259314456
4613.46772	0.258928571
4611.53902	0.258160237
4609.61031	0.259259259
4607.6816	0.258493353
4605.75289	0.257731959
4603.82419	0.257352941
4601.89548	0.258443465
4599.96677	0.257686676
4598.03806	0.257309942
4596.10936	0.258394161
4594.18065	0.257641921
4592.25194	0.257267442
4590.32324	0.257971014
4588.39453	0.257225434
4586.46582	0.256854257
4584.53711	0.257553957
4582.60841	0.257183908
4580.6797	0.256446991
4578.75099	0.25751073
4576.82229	0.257142857
4574.89358	0.256410256
4572.96487	0.255681818
4571.03616	0.256737589
4569.10746	0.256011315
4567.17875	0.255649718
4565.25004	0.256338028
4563.32133	0.255977496
4561.39263	0.255259467
4559.46392	0.255944056
4557.53521	0.255586592
4555.60651	0.254874652
4553.6778	0.254520167
4551.74909	0.255555556
4549.82038	0.254847645
4547.89168	0.255524862
4545.96297	0.255172414
4544.03426	0.254470426
4542.10555	0.255494505
4540.17685	0.254794521
4538.24814	0.254098361
4536.31943	0.255115962
4534.39073	0.254421769
4532.46202	0.255434783
4530.53331	0.253387534
4528.6046	0.254054054
4526.6759	0.253711201
4524.74719	0.254374159
4522.81848	0.254032258
4520.88978	0.253351206
4518.96107	0.252673797
4517.03236	0.253671562
4515.10365	0.253333333
4513.17495	0.252659574
4511.24624	0.253652058
4509.31753	0.252980132
4507.38882	0.253632761
4505.46012	0.252964427
4503.53141	0.252299606
4501.6027	0.251968504
4499.674	0.252617801
4497.74529	0.252287582
4495.81658	0.252933507
4493.88787	0.252604167
4491.95917	0.253246753
4490.03046	0.252590674
4488.10175	0.251937984
4486.17304	0.251612903
4484.24434	0.252252252
4482.31563	0.251928021
4480.38692	0.251282051
4478.45822	0.252240717
4476.52951	0.251596424
4474.6008	0.250955414
4472.67209	0.25158831
4470.74339	0.251269036
4468.81468	0.250632911
4466.88597	0.25
4464.95727	0.250945776
4463.02856	0.250314465
4461.09985	0.250941029
4459.17114	0.250312891
4457.24244	0.25
4455.31373	0.250623441
4453.38502	0.25
4451.45631	0.249689441
4449.52761	0.249070632
4447.5989	0.249690977
4445.67019	0.249382716
4443.74149	0.25
4441.81278	0.249385749
4439.88407	0.249079755
4437.95536	0.249694002
4436.02666	0.249084249
4434.09795	0.25
4432.16924	0.249391727
4430.24053	0.248786408
4428.31183	0.249394673
4426.38312	0.249093108
4424.45441	0.249698432
4422.52571	0.249097473
4420.597	0.2484994
4418.66829	0.247904192
4416.73958	0.248803828
4414.81088	0.248210024
4412.88217	0.247619048
4410.95346	0.248218527
4409.02476	0.247924081
4407.09605	0.247337278
4405.16734	0.246753247
4403.23863	0.247349823
4401.30993	0.246768508
4399.38122	0.246189918
4397.45251	0.246783626
4395.5238	0.246495327
4393.5951	0.247086247
4391.66639	0.247962747
4389.73768	0.24738676
4387.80898	0.246813441
4385.88027	0.247685185
4383.95156	0.247113164
4382.02285	0.246543779
4380.09415	0.245977011
4378.16544	0.245412844
4376.23673	0.245995423
4374.30802	0.24543379
4372.37932	0.245153934
4370.45061	0.245733788
4368.5219	0.245175936
4366.5932	0.245753114
4364.66449	0.24519774
4362.73578	0.245772266
4360.80707	0.245219348
4358.87837	0.244668911
4356.94966	0.244120941
4355.02095	0.244692737
4353.09225	0.244419643
4351.16354	0.243875278
4349.23483	0.244444444
4347.30612	0.243902439
4345.37742	0.244469027
4343.44871	0.24392936
4341.52	0.24339207
4339.59129	0.244224422
4337.66259	0.243688255
4335.73388	0.244249726
4333.80517	0.243715847
4331.87647	0.243184297
4329.94776	0.243743199
4328.01905	0.243478261
4326.09034	0.242950108
4324.16164	0.243506494
4322.23293	0.242718447
4320.30422	0.242456897
4318.37551	0.243010753
4316.44681	0.24248927
4314.5181	0.243040685
4312.58939	0.242521368
4310.66069	0.242004264
4308.73198	0.241489362
4306.80327	0.24229543
4304.87456	0.241781548
4302.94586	0.242328042
4301.01715	0.241816262
4299.08844	0.241306639
4297.15974	0.241850683
4295.23103	0.242392445
4293.30232	0.241884817
4291.37361	0.24137931
4289.44491	0.241918665
4287.5162	0.241415193
4285.58749	0.241952233
4283.65878	0.241450777
4281.73008	0.240951396
4279.80137	0.240454076
4277.87266	0.239958805
4275.94396	0.24049332
4274.01525	0.241025641
4272.08654	0.240532242
4270.15783	0.240040858
4268.22913	0.239551478
4266.30042	0.240081384
4264.37171	0.239837398
4262.443	0.240365112
4260.5143	0.239878543
4258.58559	0.239393939
4256.65688	0.239919355
4254.72818	0.23943662
4252.79947	0.238955823
4250.87076	0.238476954
4248.94205	0.238761239
4247.01335	0.239282154
4245.08464	0.239800995
4243.15593	0.239324727
4241.22723	0.238850347
4239.29852	0.239366963
4237.36981	0.238894373
4235.4411	0.238423645
4233.5124	0.238938053
4231.58369	0.238469087
4229.65498	0.238001959
4227.72627	0.238514174
4225.79757	0.23804878
4223.86886	0.2375852
4221.94015	0.238095238
4220.01145	0.238603298
4218.08274	0.238141336
4216.15403	0.237681159
4214.22532	0.237222758
4212.29662	0.2375
4210.36791	0.237044146
4208.4392	0.237547893
4206.51049	0.23709369
4204.58179	0.23759542
4202.65308	0.237142857
4200.72437	0.236692015
4198.79567	0.236242884
4196.86696	0.236742424
4194.93825	0.236071766
4193.00954	0.236569274
4191.08084	0.236124177
4189.15213	0.235680751
4187.22342	0.236176195
4185.29472	0.235734331
4183.36601	0.235294118
4181.4373	0.235787512
4179.50859	0.235348837
4177.57989	0.234693878
4175.65118	0.235185185
4173.72247	0.234750462
4171.79376	0.235239852
4169.86506	0.234590616
4167.93635	0.235078053
4166.00764	0.234862385
4164.07894	0.235347985
4162.15023	0.234703196
4160.22152	0.235186873
4158.29281	0.234758872
4156.36411	0.234332425
4154.4354	0.233907525
4152.50669	0.234177215
4150.57798	0.233754513
4148.64928	0.233333333
4146.72057	0.23381295
4144.79186	0.233183857
4142.86316	0.233661594
4140.93445	0.233243968
4139.00574	0.233719893
4137.07703	0.233303651
4135.14833	0.232888889
4133.21962	0.233156028
4131.29091	0.232743363
4129.36221	0.232332155
4127.4335	0.232599119
4125.50479	0.233069481
4123.57608	0.232660228
4121.64738	0.233128834
4119.71867	0.23272091
4117.78996	0.23231441
4115.86125	0.232578397
4113.93255	0.232173913
4112.00384	0.231770833
4110.07513	0.232235702
4108.14643	0.23183391
4106.21772	0.232096635
4104.28901	0.231497418
4102.3603	0.231099656
4100.4316	0.231560892
4098.50289	0.231164384
4096.57418	0.231623932
4094.64547	0.231228669
4092.71677	0.231686542
4090.78806	0.231096007
4088.85935	0.230703986
4086.93065	0.230964467
4085.00194	0.230574324
4083.07323	0.231028668
4081.14452	0.230445753
4079.21582	0.230898405
4077.28711	0.230318258
4075.3584	0.230769231
4073.4297	0.230383973
4071.50099	0.229808493
4069.57228	0.229426434
4067.64357	0.229875519
4065.71487	0.229494615
4063.78616	0.229114971
4061.85745	0.229562345
4059.92874	0.228995058
4058.00004	0.229440789
4056.07133	0.228876128
4054.14262	0.229320229
4052.21392	0.22875817
4050.28521	0.229200653
4048.3565	0.228827362
4046.42779	0.228269699
4044.49909	0.228710462
4042.57038	0.22815534
4040.64167	0.228594507
4038.71296	0.228225806
4036.78426	0.228479485
4034.85555	0.22811245
4032.92684	0.227746592
4030.99814	0.2272
4029.06943	0.227635783
4027.14072	0.227272727
4025.21201	0.227525855
4023.28331	0.227164416
4021.3546	0.227597145
4019.42589	0.227056962
4017.49719	0.226698262
4015.56848	0.226950355
4013.63977	0.226415094
4011.71106	0.226059655
4009.78236	0.226311668
4007.85365	0.22595778
4005.92494	0.226209048
4003.99623	0.225856698
4002.06753	0.226283048
4000.13882	0.2257564
3998.21011	0.226181255
3996.28141	0.2258314
3994.3527	0.226254826
3992.42399	0.225731895
3990.49528	0.225211376
3988.56658	0.225633154
3986.63787	0.225114855
3984.70916	0.225535168
3982.78045	0.225019069
3980.85175	0.225437928
3978.92304	0.225095057
3976.99433	0.224582701
3975.06563	0.225
3973.13692	0.224489796
3971.20821	0.224736048
3969.2795	0.22439759
3967.3508	0.224643125
3965.42209	0.224306077
3963.49338	0.224719101
3961.56468	0.224215247
3959.63597	0.223713647
3957.70726	0.224125093
3955.77855	0.223625557
3953.84985	0.224035608
3951.92114	0.223703704
3949.99243	0.223207687
3948.06372	0.223616236
3946.13502	0.223122239
3944.20631	0.222794118
3942.2776	0.223037417
3940.3489	0.223279649
3938.42019	0.222790358
3936.49148	0.223194748
3934.56277	0.222869629
3932.63407	0.222545455
3930.70536	0.222060958
3928.77665	0.222302679
3926.84794	0.221820809
3924.91924	0.222062004
3922.99053	0.221742261
3921.06182	0.222142344
3919.13312	0.221823403
3917.20441	0.222222222
3915.2757	0.221586848
3913.34699	0.221112696
3911.41829	0.221352313
3909.48958	0.221590909
3907.56087	0.221433641
3905.63217	0.220567376
3903.70346	0.221119773
3901.77475	0.220650636
3899.84604	0.220889203
3897.91734	0.220815752
3895.98863	0.221052632
3894.05992	0.220742817
3892.13121	0.22043387
3890.20251	0.220670391
3888.2738	0.220362622
3886.34509	0.22005571
3884.41639	0.219596942
3882.48768	0.219833564
3880.55897	0.220069204
3878.63026	0.219461698
3876.70156	0.21969697
3874.77285	0.219394773
3872.84414	0.219243986
3870.91543	0.21978022
3868.98673	0.219178082
3867.05802	0.219412167
3865.12931	0.218963165
3863.20061	0.219196732
3861.2719	0.21928038
3859.34319	0.218834688
3857.41448	0.218834688
3855.48578	0.218601494
3853.55707	0.218453189
3851.62836	0.218095881
3849.69966	0.217595702
3847.77095	0.217682518
3845.84224	0.217914439
3843.91353	0.217623498
3841.98483	0.217478319
3840.05612	0.218
3838.12741	0.21770972
3836.1987	0.217795485
3834.27	0.217218543
3832.34129	0.217305152
3830.41258	0.217534608
3828.48388	0.217619987
3826.55517	0.217334209
3824.62646	0.21704918
3822.69775	0.216906946
3820.76905	0.216623037
3818.84034	0.216851731
3816.91163	0.21642764
3814.98292	0.216514954
3813.05422	0.216321244
3811.12551	0.215901745
3809.1968	0.215762274
3807.2681	0.215483871
3805.33939	0.215850515
3803.41068	0.216216216
3801.48197	0.215938303
3799.55327	0.216025641
3797.62456	0.215974441
3795.69585	0.215423837
3793.76715	0.215511761
3791.83844	0.215101523
3789.90973	0.215326156
3787.98102	0.214917826
3786.05232	0.215277778
3784.12361	0.214870825
3782.1949	0.214600378
3780.26619	0.214824121
3778.33749	0.214420063
3776.40878	0.214509068
3774.48007	0.214731586
3772.55137	0.21446384
3770.62266	0.214196762
3768.69395	0.213930348
3766.76524	0.214019851
3764.83654	0.213622291
3762.90783	0.213844252
3760.97912	0.213580247
3759.05041	0.213185459
3757.12171	0.213407134
3755.193	0.213275968
3753.26429	0.213407134
3751.33559	0.213275968
3749.40688	0.213496933
3747.47817	0.213235294
3745.54946	0.213717085
3743.62076	0.213544844
3741.69205	0.213114754
3739.76334	0.213204119
3737.83464	0.212598425
3735.90593	0.212469734
3733.97722	0.212560386
3732.04851	0.212394705
3730.11981	0.212357528
3728.1911	0.21257485
3726.26239	0.212320574
3724.33368	0.212537313
3722.40498	0.212030971
3720.47627	0.211652794
3718.54756	0.211150652
3716.61886	0.211367673
3714.69015	0.211242604
3712.76144	0.211117682
3710.83273	0.21133412
3708.90403	0.211300765
3706.97532	0.210680751
3705.04661	0.210896309
3703.1179	0.210649503
3701.1892	0.210864486
3699.26049	0.21037296
3697.33178	0.210587551
3695.40308	0.210220674
3693.47437	0.210098665
3691.54566	0.210098665
3689.61695	0.209976798
3687.68825	0.209947947
3685.75954	0.21037464
3683.83083	0.209890742
3681.90213	0.210224009
3679.97342	0.209529277
3678.04471	0.209529277
3676.116	0.209529277
3674.1873	0.209049255
3672.25859	0.209262436
3670.32988	0.20890411
3668.40117	0.208759954
3666.47247	0.208735111
3664.54376	0.208828523
3662.61505	0.209039548
3660.68635	0.208803612
3658.75764	0.208685843
3656.82893	0.208568207
3654.90022	0.208778841
3652.97152	0.208661417
3651.04281	0.208216095
3649.1141	0.208098988
3647.18539	0.208076276
3645.25669	0.207821229
3643.32798	0.20735786
3641.39927	0.207568169
3639.47057	0.207222222
3637.54186	0.206992231
3635.61315	0.207317073
3633.68444	0.207202216
3631.75574	0.207317073
3629.82703	0.207317073
3627.89832	0.206858407
3625.96961	0.206725469
3624.04091	0.206270627
3622.1122	0.206270627
3620.18349	0.206270627
3618.25479	0.206479956
3616.32608	0.206253428
3614.39737	0.206462212
3612.46866	0.206349206
3610.53996	0.206123565
3608.61125	0.205786026
3606.68254	0.205337691
3604.75384	0.205434783
3602.82513	0.20510038
3600.89642	0.205531453
3598.96771	0.205308776
3597.03901	0.205516495
3595.1103	0.205294435
3593.18159	0.204962244
3591.25288	0.204741379
3589.32418	0.204741379
3587.39547	0.205059203
3585.46676	0.20461869
3583.53806	0.20471597
3581.60935	0.204387373
3579.68064	0.204059829
3577.75193	0.203842049
3575.82323	0.204157783
3573.89452	0.203831825
3571.96581	0.203723404
3570.0371	0.203723404
3568.1084	0.203615098
3566.17969	0.203821656
3564.25098	0.203389831
3562.32228	0.203595981
3560.39357	0.203273495
3558.46486	0.203059072
3556.53615	0.20337197
3554.60745	0.203157895
3552.67874	0.202944269
3550.75003	0.202731092
3548.82133	0.202518363
3546.89262	0.20230608
3544.96391	0.202511774
3543.0352	0.202822791
3541.1065	0.202505219
3539.17779	0.202294056
3537.24908	0.202083333
3535.32037	0.201873049
3533.39167	0.202077922
3531.46296	0.201868189
3529.53425	0.201658891
3527.60555	0.201554404
3525.67684	0.201863354
3523.74813	0.201654602
3521.81942	0.201446281
3519.89072	0.201134605
3517.96201	0.201338826
3516.0333	0.201131687
3514.10459	0.200924974
3512.17589	0.201232033
3510.24718	0.200922604
3508.31847	0.201228879
3506.38977	0.200920245
3504.46106	0.200715015
3502.53235	0.200510204
3500.60364	0.20020377
3498.67494	0.2
3496.74623	0.199695122
3494.81752	0.2
3492.88882	0.19979716
3490.96011	0.199594732
3489.0314	0.199898785
3487.10269	0.199595755
3485.17399	0.199899041
3483.24528	0.199596774
3481.31657	0.19939577
3479.38786	0.199597788
3477.45916	0.199297189
3475.53045	0.199097292
3473.60174	0.199298948
3471.67304	0.199
3469.74433	0.198801199
3467.81562	0.199002494
3465.88691	0.198705179
3463.95821	0.198408752
3462.0295	0.198113208
3460.10079	0.198412698
3458.17208	0.19811788
3456.24338	0.197823937
3454.31467	0.19812253
3452.38596	0.198322644
3450.45726	0.198127156
3448.52855	0.197834646
3446.59984	0.198034398
3444.67113	0.197742885
3442.74243	0.197942185
3440.81372	0.197651663
3438.88501	0.197361993
3436.95631	0.197560976
3435.0276	0.197272284
3433.09889	0.196984436
3431.17018	0.197087379
3429.24148	0.196705426
3427.31277	0.196419932
3425.38406	0.196523419
3423.45535	0.196721311
3421.52665	0.196437169
3419.59794	0.196634615
3417.66923	0.196257198
3415.74053	0.196454241
3413.81182	0.196078431
3411.88311	0.196275072
3409.9544	0.196087786
3408.0257	0.195807527
3406.09699	0.196003806
3404.16828	0.196199525
3402.23957	0.195920304
3400.31087	0.195549242
3398.38216	0.195652174
3396.45345	0.195283019
3394.52475	0.195386064
3392.59604	0.195018797
3390.66733	0.195121951
3388.73862	0.195224719
3386.80992	0.194950912
3384.88121	0.195053663
3382.9525	0.194780988
3381.0238	0.194883721
3379.09509	0.194612169
3377.16638	0.194714882
3375.23767	0.194907407
3373.30897	0.194547135
3371.38026	0.194277803
3369.45155	0.19438047
3367.52284	0.194112236
3365.59414	0.194304088
3363.66543	0.19394773
3361.73672	0.194050343
3359.80802	0.193784278
3357.87931	0.193430657
3355.9506	0.193621868
3354.02189	0.19372442
3352.09319	0.19346049
3350.16448	0.19356301
3348.23577	0.193300136
3346.30706	0.193037975
3344.37836	0.193140794
3342.44965	0.193330329
3340.52094	0.192982456
3338.59224	0.193084868
3336.66353	0.192825112
3334.73482	0.192927484
3332.80611	0.192668753
3330.87741	0.192771084
3328.9487	0.192427617
3327.01999	0.192615658
3325.09129	0.192273535
3323.16258	0.192461197
3321.23387	0.192120407
3319.30516	0.192222713
3317.37646	0.192409532
3315.44775	0.192070485
3313.51904	0.192172383
3311.59033	0.191834943
3309.66163	0.191936897
3307.73292	0.192122538
3305.80421	0.191786806
3303.87551	0.191452246
3301.9468	0.191554201
3300.01809	0.191304348
3298.08938	0.19140625
3296.16068	0.191074523
3294.23197	0.191176471
3292.30326	0.190846287
3290.37455	0.190948276
3288.44585	0.190619621
3286.51714	0.19080361
3284.58843	0.190394511
3282.65973	0.190496575
3280.73102	0.19017094
3278.80231	0.190273038
3276.8736	0.189948893
3274.9449	0.190131859
3273.01619	0.190233546
3271.08748	0.190254237
3269.15878	0.189932318
3267.23007	0.190033784
3265.30136	0.190134907
3263.37265	0.189814815
3261.44395	0.189495798
3259.51524	0.189676878
3257.58653	0.189359028
3255.65782	0.189460477
3253.72912	0.18914405
3251.80041	0.189245519
3249.8717	0.188930504
3247.943	0.18903199
3246.01429	0.18913314
3244.08558	0.189233954
3242.15687	0.188921042
3240.22817	0.189021874
3238.29946	0.188710342
3236.37075	0.188477366
3234.44204	0.188578472
3232.51334	0.188191882
3230.58463	0.188293082
3228.65592	0.188393952
3226.72722	0.188086495
3224.79851	0.188187373
3222.8698	0.187881253
3220.94109	0.187982136
3219.01239	0.188082692
3217.08368	0.187778227
3215.15497	0.187878788
3213.22627	0.187575635
3211.29756	0.187676198
3209.36885	0.187299035
3207.44014	0.186998395
3205.51144	0.187099359
3203.58273	0.1872
3201.65402	0.187300319
3199.72531	0.187001595
3197.79661	0.187101911
3195.8679	0.187201908
3193.93919	0.186830623
3192.01049	0.186534653
3190.08178	0.186635034
3188.15307	0.186661405
3186.22436	0.186367218
3184.29566	0.186467349
3182.36695	0.186174391
3180.43824	0.18627451
3178.50953	0.185982772
3176.58083	0.18601016
3174.65212	0.186110027
3172.72341	0.185747664
3170.79471	0.185847589
3168.866	0.185559006
3166.93729	0.185658915
3165.00858	0.185371517
3163.07988	0.185399768
3161.15117	0.185113768
3159.22246	0.185213708
3157.29376	0.185313341
3155.36505	0.185028791
3153.43634	0.185057471
3151.50763	0.185156848
3149.57893	0.18487395
3147.65022	0.184973303
3145.72151	0.184621241
3143.7928	0.184720639
3141.8641	0.184370258
3139.93539	0.184399849
3138.00668	0.184120983
3136.07798	0.184220461
3134.14927	0.184250188
3132.22056	0.184349135
3130.29185	0.184072126
3128.36315	0.184171043
3126.43444	0.183895131
3124.50573	0.183551402
3122.57702	0.183650616
3120.64832	0.183308495
3118.71961	0.183407738
3116.7909	0.183506686
3114.8622	0.183537264
3112.93349	0.183265457
3111.00478	0.183296378
3109.07607	0.18302583
3107.14737	0.18305709
3105.21866	0.182720588
3103.28995	0.182819383
3101.36125	0.182917889
3099.43254	0.183016105
3097.50383	0.182681768
3095.57512	0.182713348
3093.64642	0.182447196
3091.71771	0.182479099
3089.789	0.182577132
3087.86029	0.182246377
3085.93159	0.182344428
3084.00288	0.182015168
3082.07417	0.182113235
3080.14547	0.182145428
3078.21676	0.181818182
3076.28805	0.181916039
3074.35934	0.182013615
3072.43064	0.181688126
3070.50193	0.181785714
3068.57322	0.181526391
3066.64451	0.181203275
3064.71581	0.181301102
3062.7871	0.18133428
3060.85839	0.18136734
3058.92969	0.181110718
3057.00098	0.181208054
3055.07227	0.180888575
3053.14356	0.180985915
3051.21486	0.180667838
3049.28615	0.180765181
3047.35744	0.180511742
3045.42874	0.180545836
3043.50003	0.180293501
3041.57132	0.180327869
3039.64261	0.180424939
3037.71391	0.180173913
3035.7852	0.180270927
3033.85649	0.180020812
3031.92778	0.180055402
3029.99908	0.179806362
3028.07037	0.179903315
3026.14166	0.179593244
3024.21296	0.179690189
3022.28425	0.179443108
3020.35554	0.179539993
3018.42683	0.179293795
3016.49813	0.17939062
3014.56942	0.179487179
3012.64071	0.179303279
3010.712	0.179058663
3008.7833	0.179155313
3006.85459	0.179312691
3004.92588	0.179068977
3002.99718	0.178825925
3001.06847	0.178644068
2999.13976	0.178801219
2997.21105	0.178619756
2995.28235	0.178837052
2993.35364	0.178716216
2991.42493	0.178595544
2989.49623	0.178475034
2987.56752	0.178077572
2985.63881	0.178017532
2983.7101	0.178017532
2981.7814	0.177740304
2979.85269	0.17780027
2977.92398	0.177920324
2975.99527	0.177822853
2974.06657	0.177785303
2972.13786	0.17780794
2970.20915	0.177611432
2968.28045	0.177694407
2966.35174	0.177656303
2964.42303	0.177435897
2962.49432	0.177314657
2960.56562	0.177232447
2958.63691	0.177370031
2956.7082	0.17704807
2954.77949	0.177065767
2952.85079	0.177083333
2950.92208	0.176825184
2948.99337	0.176686707
2947.06467	0.176725575
2945.13596	0.176490176
2943.20725	0.176705491
2941.27854	0.176372712
2939.34984	0.176431425
2937.42113	0.176490176
2935.49242	0.176157176
2933.56372	0.176490176
2931.63501	0.176372712
2929.7063	0.176196809
2927.77759	0.175962815
2925.84889	0.176002652
2923.92018	0.175925926
2921.99147	0.175791557
2920.06276	0.175871137
2918.13406	0.175950197
2916.20535	0.175644793
2914.27664	0.175398633
2912.34794	0.175535367
2910.41923	0.175404531
2908.49052	0.175274371
2906.56181	0.175201288
2904.63311	0.175128535
2902.7044	0.175056108
2900.77569	0.174984005
2898.84698	0.174912225
2896.91828	0.174840764
2894.98957	0.174769622
2893.06086	0.174698795
2891.13216	0.174683544
2889.20345	0.174723539
2887.27474	0.17444795
2885.34603	0.174228103
2883.41733	0.174323474
2881.48862	0.174213836
2879.55991	0.174104337
2877.63121	0.174309045
2875.7025	0.174144964
2873.77379	0.173926669
2871.84508	0.17370892
2869.91638	0.1734375
2867.98767	0.173478939
2866.05896	0.173520249
2864.13025	0.173615432
2862.20155	0.173710379
2860.27284	0.173494724
2858.34413	0.173333333
2856.41543	0.173374613
2854.48672	0.173415765
2852.55801	0.173041333
2850.6293	0.172923077
2848.7006	0.173006135
2846.77189	0.172782875
2844.84318	0.172865854
2842.91447	0.172696868
2840.98577	0.172581134
2839.05706	0.172768533
2837.12835	0.172705314
2835.19965	0.172393008
2833.27094	0.172382671
2831.34223	0.172072072
2829.41352	0.172113943
2827.48482	0.17210416
2825.55611	0.172145846
2823.6274	0.171888988
2821.6987	0.17193087
2819.76999	0.171675097
2817.84128	0.171768202
2815.91257	0.171759122
2813.98387	0.171504739
2812.05516	0.171597633
2810.12645	0.171344165
2808.19774	0.171437002
2806.26904	0.17152962
2804.34033	0.171277222
2802.41162	0.171319424
2800.48292	0.171068075
2798.55421	0.170867526
2796.6255	0.170960187
2794.69679	0.171002631
2792.76809	0.17104495
2790.83938	0.170795686
2788.91067	0.170887918
2786.98196	0.170639535
2785.05326	0.170682148
2783.12455	0.170434783
2781.19584	0.170526925
2779.26714	0.170569529
2777.33843	0.170323326
2775.40972	0.170415225
2773.48101	0.170218894
2771.55231	0.17026172
2769.6236	0.170066073
2767.69489	0.169822146
2765.76619	0.16991404
2763.83748	0.169957082
2761.90877	0.169762789
2759.98006	0.169854411
2758.05136	0.169612315
2756.12265	0.169419134
2754.19394	0.169510808
2752.26523	0.169554104
2750.33653	0.169361702
2748.40782	0.169453103
2746.47911	0.169496321
2744.55041	0.169256852
2742.6217	0.169065763
2740.69299	0.169157034
2738.76428	0.168966488
2736.83558	0.169010124
2734.90687	0.168820225
2732.97816	0.168630752
2731.04945	0.168674699
2729.12075	0.168485866
2727.19204	0.168529905
2725.26333	0.168573821
2723.33463	0.168385838
2721.40592	0.168151448
2719.47721	0.168242492
2717.5485	0.168333333
2715.6198	0.168099861
2713.69109	0.168144044
2711.76238	0.167957941
2709.83368	0.167725891
2707.90497	0.167816726
2705.97626	0.167631652
2704.04755	0.167722391
2702.11885	0.167491749
2700.19014	0.167536391
2698.26143	0.167352538
2696.33272	0.16739726
2694.40402	0.167487685
2692.47531	0.167304538
2690.5466	0.167121791
2688.6179	0.166893919
2686.68919	0.166984473
2684.76048	0.166802721
2682.83177	0.166847826
2680.90307	0.166666667
2678.97436	0.166711846
2677.04565	0.166531275
2675.11694	0.166621585
2673.18824	0.166666667
2671.25953	0.166756611
2669.33082	0.166846361
2667.40212	0.166621803
2665.47341	0.166442592
2663.5447	0.166219119
2661.61599	0.166309013
2659.68729	0.166086258
2657.75858	0.166176077
2655.82987	0.166221272
2653.90117	0.16604378
2651.97246	0.166089043
2650.04375	0.165867945
2648.11504	0.165691489
2646.18634	0.165515409
2644.25763	0.165605096
2642.32892	0.165650676
2640.40021	0.165475245
2638.47151	0.165256478
2636.5428	0.165346012
2634.61409	0.165391717
2632.68539	0.165217391
2630.75668	0.165043432
2628.82797	0.16508938
2626.89926	0.165178571
2624.97056	0.164961972
2623.04185	0.164789101
2621.11314	0.164878304
2619.18443	0.164705882
2617.25573	0.164751958
2615.32702	0.164537158
2613.39831	0.164583333
2611.46961	0.164412071
2609.5409	0.164458301
2607.61219	0.164287568
2605.68348	0.164333852
2603.75478	0.164163646
2601.82607	0.163993792
2599.89736	0.164082687
2597.96865	0.163870968
2596.03995	0.163959783
2594.11124	0.163790883
2592.18253	0.163837449
2590.25383	0.163883894
2588.32512	0.163930221
2586.39641	0.163762173
2584.4677	0.163552598
2582.539	0.163385323
2580.61029	0.163473819
2578.68158	0.163520408
2576.75288	0.163312102
2574.82417	0.163400356
2572.89546	0.163192679
2570.96675	0.163280853
2569.03805	0.163073802
2567.10934	0.163161895
2565.18063	0.163208502
2563.25192	0.163002274
2561.32322	0.162796567
2559.39451	0.162884518
2557.4658	0.162720403
2555.5371	0.162556618
2553.60839	0.162603669
2551.67968	0.162440372
2549.75097	0.16223671
2547.82227	0.162324649
2545.89356	0.162371779
2543.96485	0.162209448
2542.03614	0.16200699
2540.10744	0.162054351
2538.17873	0.161892902
2536.25002	0.161940299
2534.32132	0.162027833
2532.39261	0.161826756
2530.4639	0.16187407
2528.53519	0.161961367
2526.60649	0.161801089
2524.67778	0.161601186
2522.74907	0.161688472
2520.82037	0.161489152
2518.89166	0.161536567
2516.96295	0.161623616
2515.03424	0.161425061
2513.10554	0.161472393
2511.17683	0.161314048
2509.24812	0.161156013
2507.31941	0.161203523
2505.39071	0.161006597
2503.462	0.160810151
2501.53329	0.160897123
2499.60459	0.160701242
2497.67588	0.160749027
2495.74717	0.160592809
2493.81846	0.160679612
2491.88976	0.160484848
2489.96105	0.160329378
2488.03234	0.160135462
2486.10363	0.160183619
2484.17493	0.160270336
2482.24622	0.160318226
2480.31751	0.160125211
2478.38881	0.160211691
2476.4601	0.160259491
2474.53139	0.160105617
2472.60268	0.16015344
2470.67398	0.159961686
2468.74527	0.159808612
2466.81656	0.159856631
2464.88786	0.159665871
2462.95915	0.159752027
2461.03044	0.1595618
2459.10173	0.159372027
2457.17303	0.15942029
2455.24432	0.159468439
2453.31561	0.159317212
2451.3869	0.159403126
2449.4582	0.159451147
2447.52949	0.159300402
2445.60078	0.159348442
2443.67208	0.159123055
2441.74337	0.158973151
2439.81466	0.159021407
2437.88595	0.158871915
2435.95725	0.158920188
2434.02854	0.158968347
2432.09983	0.158819396
2430.17112	0.158867571
2428.24242	0.158681935
2426.31371	0.158730159
2424.385	0.158545115
2422.4563	0.158360503
2420.52759	0.158445789
2418.59888	0.158494074
2416.67017	0.158542247
2414.74147	0.158358451
2412.81276	0.158175081
2410.88405	0.157992135
2408.95535	0.15807719
2407.02664	0.158125577
2405.09793	0.158173853
2403.16922	0.157991709
2401.24052	0.157809984
2399.31181	0.157858456
2397.3831	0.157713499
2395.45439	0.157761981
2393.52569	0.157810353
2391.59698	0.157665904
2389.66827	0.157714286
2387.73957	0.157498288
2385.81086	0.15754674
2383.88215	0.157367342
2381.95344	0.157224118
2380.02474	0.157272727
2378.09603	0.157129882
2376.16732	0.157178499
2374.23861	0.157000453
2372.30991	0.157084654
2370.3812	0.157133168
2368.45249	0.156955736
2366.52379	0.156814079
2364.59508	0.156862745
2362.66637	0.156686177
2360.73766	0.156510007
2358.80896	0.15655885
2356.88025	0.156572454
2354.95154	0.156621107
2353.02284	0.15641083
2351.09413	0.156459544
2349.16542	0.156284885
2347.23671	0.156145438
2345.30801	0.156194296
2343.3793	0.156277827
2341.45059	0.156104069
2339.52188	0.156187514
2337.59318	0.156014203
2335.66447	0.156062957
2333.73576	0.156111603
2331.80706	0.155938952
2329.87835	0.15595317
2327.94964	0.155781112
2326.02093	0.155829844
2324.09223	0.1556583
2322.16352	0.155672823
2320.23481	0.155721502
2318.3061	0.15555068
2316.3774	0.155599386
2314.44869	0.155429072
2312.51998	0.155477805
2310.59128	0.155492466
2308.66257	0.155322862
2306.73386	0.155405405
2304.80515	0.155236229
2302.87645	0.155067421
2300.94774	0.155116229
2299.01903	0.155164931
2297.09033	0.154996748
2295.16162	0.15482893
2293.23291	0.154911294
2291.3042	0.154743895
2289.3755	0.154826171
2287.44679	0.154874892
2285.51808	0.154708037
2283.58937	0.154541541
2281.66067	0.154590411
2279.73196	0.154639175
2277.80325	0.154506438
2275.87455	0.154555198
2273.94584	0.154389722
2272.01713	0.154224599
2270.08842	0.154306476
2268.15972	0.154141759
2266.23101	0.154190659
2264.3023	0.154239455
2262.37359	0.154108131
2260.44489	0.153944291
2258.51618	0.153993203
2256.58747	0.153829832
2254.65877	0.153634245
2252.73006	0.153683319
2250.80135	0.153520829
2248.87264	0.153537487
2246.94394	0.153586498
2245.01523	0.15339233
2243.08652	0.153441381
2241.15782	0.153458062
2239.22911	0.153474701
2237.3004	0.15352349
2235.37169	0.153540008
2233.44299	0.153379368
2231.51428	0.153396029
2229.58557	0.153203924
2227.65686	0.153220763
2225.72816	0.153061224
2223.79945	0.153078203
2221.87074	0.153126948
2219.94204	0.152936294
2218.01333	0.152777778
2216.08462	0.152795031
2214.15591	0.152637022
2212.22721	0.15265441
2210.2985	0.15270326
2208.36979	0.15275201
2206.44108	0.152769199
2204.51238	0.15281777
2202.58367	0.152660777
2200.65496	0.152504105
2198.72626	0.152552799
2196.79755	0.152365349
2194.86884	0.152414075
2192.94013	0.152462702
2191.01143	0.152307064
2189.08272	0.152355701
2187.15401	0.152200489
2185.22531	0.152045593
2183.2966	0.152094347
2181.36789	0.152143002
2179.43918	0.151988636
2177.51048	0.151834583
2175.58177	0.151883354
2173.65306	0.151932025
2171.72435	0.151980598
2169.79565	0.151827175
2167.86694	0.151674062
2165.93823	0.151521257
2164.00953	0.151570048
2162.08082	0.151618741
2160.15211	0.151466452
2158.2234	0.151515152
2156.2947	0.151363272
2154.36599	0.151442308
2152.43728	0.151490895
2150.50857	0.151369726
2148.57987	0.151309214
2146.65116	0.151309214
2144.72245	0.151109334
2142.79375	0.151097804
2140.86504	0.150996016
2138.93633	0.151123484
2137.00762	0.151111994
2135.07892	0.150962111
2133.15021	0.151010702
2131.2215	0.150831354
2129.2928	0.150850138
2127.36409	0.150898677
2125.43538	0.150720063
2123.50667	0.150768624
2121.57797	0.150620201
2119.64926	0.150472069
2117.72055	0.150491159
2115.79184	0.150343474
2113.86314	0.150362674
2111.93443	0.150411281
2110.00572	0.150234742
2108.07702	0.150283369
2106.14831	0.150107359
2104.2196	0.150156006
2102.29089	0.150009741
2100.36219	0.150029189
2098.43348	0.149854227
2096.50477	0.149873811
2094.57606	0.14992242
2092.64736	0.149941883
2090.71865	0.149767802
2088.78994	0.149787399
2086.86124	0.14980695
2084.93253	0.149633629
2083.00382	0.149653313
2081.07511	0.149480569
2079.14641	0.149529118
2077.2177	0.149356882
2075.28899	0.149376798
2073.36029	0.149396667
2071.43158	0.149225177
2069.50287	0.149302237
2067.57416	0.149188157
2065.64546	0.149236641
2063.71675	0.149037545
2061.78804	0.149000951
2059.85933	0.14918282
2057.93063	0.149012908
2056.00192	0.149032992
2054.07321	0.148863636
2052.14451	0.148912015
2050.2158	0.148743149
2048.28709	0.148763451
2046.35838	0.148783707
2044.42968	0.148803918
2042.50097	0.148663907
2040.57226	0.148684211
2038.64355	0.14851671
2036.71485	0.148564997
2034.78614	0.148585348
2032.85743	0.148474069
2030.92873	0.148418491
2029.00002	0.148362956
2027.07131	0.14832804
2025.1426	0.148293229
2023.2139	0.14828614
2021.28519	0.148306662
2019.35648	0.148354713
2017.42778	0.148216939
2015.49907	0.148264984
2013.57036	0.148100093
2011.64165	0.148120718
2009.71295	0.147983722
2007.78424	0.147846978
2005.85553	0.148079764
2003.92682	0.147943184
2001.99812	0.147806856
2000.06941	0.147670779
1998.1407	0.147691742
1996.212	0.147739802
1994.28329	0.147604186
1992.35458	0.147679325
1990.42587	0.147727273
1988.49717	0.147592016
1986.56846	0.147430035
1984.63975	0.14747807
1982.71104	0.147343436
1980.78234	0.147209048
1978.85363	0.147101713
1976.92492	0.147149882
1974.99622	0.147197962
1973.06751	0.147090909
1971.1388	0.147165698
1969.21009	0.147032129
1967.28139	0.147106838
1965.35268	0.146973541
1963.42397	0.146893679
1961.49527	0.146898803
1959.56656	0.146877269
1957.63785	0.14684554
1955.70914	0.14672931
1953.78044	0.146745989
1951.85173	0.14658743
1949.92302	0.146661868
1947.99431	0.146503685
1946.06561	0.146704974
1944.1369	0.146573376
1942.20819	0.146621258
1940.27949	0.146616541
1938.35078	0.146611836
1936.42207	0.146480886
1934.49336	0.146528645
1932.56466	0.146398003
1930.63595	0.146445751
1928.70724	0.146315415
1926.77853	0.146389185
1924.84983	0.146436822
1922.92112	0.146332801
1920.99241	0.146228926
1919.06371	0.1461252
1917.135	0.146147033
1915.20629	0.145940209
1913.27758	0.145962184
1911.34888	0.145859085
1909.42017	0.145906845
1907.49146	0.145954521
1905.56276	0.145976404
1903.63405	0.145847994
1901.70534	0.145895588
1899.77663	0.145793079
1897.84793	0.145866245
1895.91922	0.145763901
1893.99051	0.145636172
1892.0618	0.145709282
1890.1331	0.14560728
1888.20439	0.145654835
1886.27568	0.145502183
1884.34698	0.145549738
1882.41827	0.14559721
1880.48956	0.145470383
1878.56085	0.145517842
1876.63215	0.145391304
1874.70344	0.145264987
1872.77473	0.145362973
1870.84602	0.145362973
1868.91732	0.1453125
1866.98861	0.145284327
1865.0599	0.145231089
1863.1312	0.145253329
1861.20249	0.145127851
1859.27378	0.145002589
1857.34507	0.145050017
1855.41637	0.144925039
1853.48766	0.144825211
1851.55895	0.144872677
1849.63025	0.144944979
1847.70154	0.145091972
1845.77283	0.145116919
1843.84412	0.145017182
1841.91542	0.144939966
1839.98671	0.144887823
1838.058	0.144739093
1836.12929	0.144615385
1834.20059	0.144662681
1832.27188	0.144637978
1830.34317	0.144588597
1828.41447	0.144660525
1826.48576	0.144512611
1824.55705	0.14453524
1822.62834	0.144363204
1820.69964	0.144385935
1818.77093	0.144287897
1816.84222	0.144189992
1814.91351	0.14411665
1812.98481	0.144237288
1811.0561	0.144163984
1809.12739	0.144235653
1807.19869	0.144138048
1805.26998	0.144064931
1803.34127	0.144064931
1801.41256	0.144064931
1799.48386	0.144016227
1797.55515	0.144087838
1795.62644	0.143918919
1793.69774	0.143822883
1791.76903	0.143822883
1789.84032	0.143846024
1787.91161	0.143917665
1785.98291	0.143917665
1784.0542	0.143917665
1782.12549	0.143724696
1780.19678	0.143700455
1778.26808	0.143651998
1776.33937	0.143676223
1774.41066	0.143628692
1772.48196	0.143556832
1770.55325	0.143677191
1768.62454	0.143556005
1766.69583	0.143579373
1764.76713	0.143506822
1762.83842	0.143555181
1760.90971	0.143435024
1758.981	0.143459204
1757.0523	0.14336313
1755.12359	0.143484132
1753.19488	0.143388569
1751.26618	0.14334124
1749.33747	0.14348711
1747.40876	0.143560156
1745.48005	0.143463497
1743.55135	0.143464219
1741.62264	0.143319149
1739.69393	0.143270869
1737.76523	0.143222506
1735.83652	0.143247396
1733.90781	0.143345293
1731.9791	0.143271363
1730.0504	0.143294758
1728.12169	0.143221203
1726.19298	0.14317218
1724.26427	0.142978147
1722.33557	0.142857143
1720.40686	0.142857143
1718.47815	0.142857143
1716.54945	0.142857143
1714.62074	0.14280897
1712.69203	0.142737054
1710.76332	0.142785235
1708.83462	0.142617731
1706.90591	0.142689667
1704.9772	0.142713736
1703.04849	0.142522583
1701.11979	0.142546428
1699.19108	0.142546791
1697.26237	0.142571286
1695.33367	0.142595674
1693.40496	0.142383007
1691.47625	0.142478463
1689.54754	0.142407683
1687.61884	0.142289216
1685.69013	0.142099154
1683.76142	0.142099154
1681.83272	0.142171466
1679.90401	0.142125269
1677.9753	0.142078308
1676.04659	0.142101785
1674.11789	0.14188966
1672.18918	0.141819383
1670.26047	0.142007926
1668.33176	0.141890777
1666.40306	0.141868512
1664.47435	0.14184514
1662.54564	0.141821776
1660.61694	0.141893004
1658.68823	0.141681751
1656.75952	0.14170374
1654.83081	0.141606081
1652.90211	0.141746609
1650.9734	0.141795972
1649.04469	0.141632317
1647.11598	0.141632317
1645.18728	0.141657058
1643.25857	0.141588555
1641.32986	0.141659819
1639.40116	0.141588555
1637.47245	0.141445743
1635.54374	0.141492341
1633.61503	0.141447368
1631.68633	0.141402529
1629.75762	0.141356099
1627.82891	0.14137931
1625.90021	0.141261498
1623.9715	0.141120421
1622.04279	0.141238299
1620.11408	0.141191923
1618.18538	0.141238299
1616.25667	0.141191923
1614.32796	0.141006722
1612.39925	0.141055046
1610.47055	0.141195741
1608.54184	0.141195741
1606.61313	0.141149501
1604.68443	0.14110329
1602.75572	0.14105711
1600.82701	0.140987897
1598.8983	0.140941792
1596.9696	0.141036117
1595.04089	0.140967004
1593.11218	0.141015179
1591.18347	0.140900196
1589.25477	0.1407854
1587.32606	0.140810679
1585.39735	0.140696161
1583.46865	0.140721482
1581.53994	0.140630075
1579.61123	0.140607241
1577.68252	0.140815332
1575.75382	0.140723908
1573.82511	0.140680713
1571.8964	0.140566802
1569.96769	0.140498543
1568.03899	0.140523933
1566.11028	0.140503876
1564.18157	0.140435835
1562.25287	0.140594699
1560.32416	0.140544041
1558.39545	0.140404858
1556.46674	0.140410406
1554.53804	0.140370669
1552.60933	0.140489218
1550.68062	0.140398842
1548.75192	0.140353698
1546.82321	0.140421425
1544.8945	0.14041868
1542.96579	0.140322581
1541.03709	0.140229143
1539.10838	0.140164331
1537.17967	0.140102828
1535.25096	0.140060966
1533.32226	0.140131473
1531.39355	0.140134529
1529.46484	0.140044814
1527.53614	0.140089657
1525.60743	0.13985902
1523.67872	0.140016038
1521.75001	0.139967897
1519.82131	0.139900529
1517.8926	0.139903846
1515.96389	0.139791833
1514.03518	0.139907155
1512.10648	0.139769452
1510.17777	0.13974359
1508.24906	0.139740093
1506.32036	0.139650473
1504.39165	0.139635317
1502.46294	0.139549737
1500.53423	0.139412328
1498.60553	0.139546036
1496.67682	0.139386189
1494.74811	0.139456869
1492.81941	0.139456869
1490.8907	0.139408473
1488.96199	0.139453063
1487.03328	0.139363912
1485.10458	0.139252635
1483.17587	0.139208174
1481.24716	0.139092942
1479.31845	0.139204091
1477.38975	0.139244558
1475.46104	0.13919179
1473.53233	0.139094121
1471.60363	0.139022822
1469.67492	0.13904517
1467.74621	0.138973782
1465.8175	0.138969404
1463.8888	0.138853093
1461.96009	0.138897841
1460.03138	0.138799225
1458.10267	0.138906856
1456.17397	0.138884398
1454.24526	0.138915779
1452.31655	0.138875463
1450.38785	0.13883073
1448.45914	0.138808374
1446.53043	0.138719022
1444.60172	0.138585209
1442.67302	0.138518399
1440.74431	0.138540662
1438.8156	0.138558095
1436.8869	0.138508617
1434.95819	0.138419443
1433.02948	0.138468961
1431.10077	0.138285898
1429.17207	0.138308138
1427.24336	0.138308138
1425.31465	0.138374899
1423.38594	0.13834756
1421.45724	0.138248105
1419.52853	0.138309905
1417.59982	0.138192985
1415.67112	0.13812601
1413.74241	0.138148328
1411.8137	0.138098318
1409.88499	0.138210066
1407.95629	0.138160026
1406.02758	0.138132296
1404.09887	0.138221934
1402.17016	0.138149351
1400.24146	0.138076673
1398.31275	0.137981472
1396.38404	0.138143995
1394.45534	0.138054247
1392.52663	0.137897469
1390.59792	0.137992541
1388.66921	0.137875101
1386.74051	0.137919844
1384.8118	0.137852741
1382.88309	0.137785703
1380.95439	0.13771873
1379.02568	0.13769642
1377.09697	0.13769642
1375.16826	0.137903095
1373.23956	0.13771873
1371.31085	0.137674117
1369.38214	0.137629534
1367.45343	0.137445362
1365.52473	0.137607253
1363.59602	0.137467617
1361.66731	0.137562712
1359.73861	0.137590946
1357.8099	0.137479806
1355.88119	0.137413208
1353.95248	0.137346675
1352.02378	0.137441523
1350.09507	0.137514106
1348.16636	0.137264379
1346.23765	0.137336983
1344.30895	0.137109752
1342.38024	0.137087691
1340.45153	0.137248592
1338.52283	0.137182374
1336.59412	0.137232846
1334.66541	0.137100658
1332.7367	0.137151107
1330.808	0.137223469
1328.87929	0.137157507
1326.95058	0.137113567
1325.02188	0.137091608
1323.09317	0.136931454
1321.16446	0.136953388
1319.23575	0.136975328
1317.30705	0.136997276
1315.37834	0.137041192
1313.44963	0.136902853
1311.52092	0.136924804
1309.59222	0.136786402
1307.66351	0.136830286
1305.7348	0.13703466
1303.8061	0.136918138
1301.87739	0.136845487
1299.94868	0.136750763
1298.01997	0.136699904
1296.09127	0.136948825
1294.16256	0.136736995
1292.23385	0.136847195
1290.30514	0.136796257
1288.37644	0.136745237
1286.44773	0.136877828
1284.51902	0.136848916
1282.59032	0.13686427
1280.66161	0.136857467
1278.7329	0.136732705
1276.80419	0.136814706
1274.87549	0.136756316
1272.94678	0.136764706
1271.01807	0.1366765
1269.08937	0.136722606
1267.16066	0.136904762
1265.23195	0.136922566
1263.30324	0.136780651
1261.37454	0.136842105
1259.44583	0.136705058
1257.51712	0.136885928
1255.58841	0.136854343
1253.65971	0.136747887
1251.731	0.136800265
1249.80229	0.136634647
1247.87359	0.136725224
1245.94488	0.136672748
1244.01617	0.13666556
1242.08746	0.136658354
1240.15876	0.13667388
1238.23005	0.136712237
1236.30134	0.13675071
1234.37263	0.136812176
1232.44393	0.136850921
1230.51522	0.136889784
1228.58651	0.136928763
1226.65781	0.136967861
1224.7291	0.13703017
1222.80039	0.13709269
1220.87168	0.137009472
1218.94298	0.137241613
1217.01427	0.137328128
1215.08556	0.137414966
1213.15686	0.137525562
1211.22815	0.137465847
1209.29944	0.137429403
1207.37073	0.137564322
1205.44203	0.137527935
1203.51332	0.13766368
1201.58461	0.137603591
1199.6559	0.137740093
1197.7272	0.137877211
1195.79849	0.137841126
1193.86978	0.137979094
1191.94108	0.138093575
1190.01237	0.13803359
1188.08366	0.138172891
1186.15495	0.138161364
1184.22625	0.138222849
1182.29754	0.138333628
1180.36883	0.138548874
1178.44012	0.138642019
1176.51142	0.138864162
1174.58271	0.138958259
1172.654	0.139077583
1170.7253	0.139222362
1168.79659	0.139392851
1166.86788	0.139359021
1164.93917	0.139530686
1163.01047	0.139522258
1161.08176	0.139669871
1159.15305	0.139843608
1157.22435	0.139861415
1155.29564	0.140062169
1153.36693	0.140289749
1151.43822	0.140334743
1149.50952	0.140590406
1147.58081	0.140847677
1145.6521	0.140973254
1143.72339	0.141286114
1141.79469	0.141387694
1139.86598	0.141597899
1137.93727	0.141809291
1136.00857	0.14183327
1134.07986	0.142100284
1132.15115	0.142206189
1130.22244	0.142557652
1128.29374	0.14293915
1126.36503	0.142966949
1124.43632	0.143380934
1122.50761	0.143632487
1120.57891	0.143719572
1118.6502	0.144031311
1116.72149	0.144177813
1114.79279	0.144552106
1112.86408	0.144959236
1110.93537	0.1452
1109.00666	0.145674044
1107.07796	0.145951417
1105.14925	0.146232179
1103.22054	0.146691252
1101.29184	0.146889164
1099.36313	0.147381495
1097.43442	0.147578466
1095.50571	0.148070907
1093.57701	0.148473442
1091.6483	0.148878172
1089.71959	0.149495374
1087.79088	0.14978903
1085.86218	0.150328181
1083.93347	0.150903294
1082.00476	0.151088348
1080.07606	0.151456727
1078.14735	0.151645515
1076.21864	0.152169221
1074.28993	0.152846937
1072.36123	0.153245062
1070.43252	0.153829417
1068.50381	0.154198473
1066.5751	0.154787932
1064.6464	0.155380232
1062.71769	0.155789936
1060.78898	0.156387665
1058.86028	0.157139704
1056.93157	0.157569061
1055.00286	0.157894737
1053.07415	0.158185841
1051.14545	0.158919876
1049.21674	0.159468439
1047.28803	0.159982273
1045.35933	0.160532151
1043.43062	0.16108276
1041.50191	0.161892072
1039.5732	0.162480551
1037.6445	0.163106364
1035.71579	0.163883322
1033.78708	0.164698016
1031.85837	0.165254237
1029.92967	0.166220437
1028.00096	0.166703861
1026.07225	0.167521749
1024.14355	0.168041007
1022.21484	0.168744435
1020.28613	0.169446298
1018.35742	0.170108816
1016.42872	0.170953437
1014.50001	0.171757415
1012.5713	0.172520433
1010.64259	0.173500882
1008.71389	0.174219094
1006.78518	0.175010979
1004.85647	0.17601929
1002.92777	0.17674113
1000.99906	0.177719413
999.07035	0.178555799
997.14164	0.179391818
995.21294	0.180345809
993.28423	0.181081673
991.35552	0.181897874
989.42682	0.182835821
987.49811	0.184036939
985.5694	0.185062789
983.64069	0.186216037
981.71199	0.187458453
979.78328	0.1886121
977.85457	0.189635917
975.92586	0.190892777
973.99716	0.191891892
972.06845	0.193037975
970.13974	0.194375142
968.21104	0.195449374
966.28233	0.196485623
964.35362	0.197482838
962.42491	0.198715007
960.49621	0.200184077
958.5675	0.201477037
956.63879	0.2028717
954.71008	0.20409112
952.78138	0.205134189
950.85267	0.206565064
948.92396	0.207822809
946.99526	0.209004739
945.06655	0.210061993
943.13784	0.211473836
941.20913	0.212817412
939.28043	0.214094123
937.35172	0.215498155
935.42301	0.21678669
933.49431	0.218099774
931.5656	0.219438117
929.63689	0.220633299
927.70818	0.22179289
925.77948	0.223376623
923.85077	0.224404294
921.92206	0.225772379
919.99335	0.22689747
918.06465	0.22810317
916.13594	0.229663774
914.20723	0.231106243
912.27853	0.232429441
910.34982	0.233911584
908.42111	0.234927823
906.4924	0.23603552
904.5637	0.237170194
902.63499	0.238332844
900.70628	0.239833779
898.77757	0.241224122
896.84887	0.242497727
894.92016	0.243491577
892.99145	0.244891641
891.06275	0.24600939
889.13404	0.247230136
887.20533	0.248799232
885.27662	0.250080985
883.34792	0.251310616
881.41921	0.252568777
879.4905	0.253351206
877.5618	0.254317643
875.63309	0.255471956
873.70438	0.256383713
871.77567	0.25773913
869.84697	0.258675079
867.91826	0.259978806
865.98955	0.260946956
864.06084	0.262101112
862.13214	0.262910798
860.20343	0.263732266
858.27472	0.264468864
856.34602	0.265117994
854.41731	0.265775798
852.4886	0.266816143
850.55989	0.267494357
848.63119	0.268458917
846.70248	0.269333333
844.77377	0.270394485
842.84506	0.271082018
840.91636	0.272058824
838.98765	0.272656554
837.05894	0.272976144
835.13024	0.273584906
833.20153	0.274199921
831.27282	0.274603175
829.34411	0.274611399
827.41541	0.274729676
825.4867	0.275362319
823.55799	0.275596924
821.62929	0.276128508
819.70058	0.276256641
817.77187	0.276569553
815.84316	0.276586974
813.91446	0.276604555
811.98575	0.276737412
810.05704	0.276569038
808.12833	0.27628259
806.19963	0.275876637
804.27092	0.275233249
802.34221	0.275202042
800.41351	0.274936061
798.4848	0.274317406
796.55609	0.273580879
794.62738	0.2721843
792.69868	0.271215352
790.76997	0.269706008
788.84126	0.26893617
786.91255	0.267857143
784.98385	0.266468338
783.05514	0.265080714
781.12643	0.263269639
779.19773	0.261773441
777.26902	0.259541985
775.34031	0.257627119
773.4116	0.255292125
771.4829	0.253169907
769.55419	0.250632911
767.62548	0.248630426
765.69678	0.246212121
763.76807	0.243902439
761.83936	0.241277848
759.91065	0.23875578
757.98195	0.236233712
756.05324	0.233487589
754.12453	0.230834035
752.19582	0.228595529
750.26712	0.225602028
748.33841	0.223021583
746.4097	0.220195163
744.481	0.217779668
742.55229	0.215443686
740.62358	0.212756849
738.69487	0.210729614
736.76617	0.20835127
734.83746	0.206479482
732.90875	0.204683435
730.98004	0.202437963
729.05134	0.201048951
727.12263	0.198858648
725.19392	0.196735774
723.26522	0.195121951
721.33651	0.19349086
719.4078	0.192376682
717.47909	0.19116321
715.55039	0.189483228
713.62168	0.188326493
711.69297	0.186782928
709.76427	0.186057248
707.83556	0.184944238
705.90685	0.184284378
703.97814	0.183145009
702.04944	0.182076814
700.12073	0.180993314
698.19202	0.18037518
696.26331	0.179748062
694.33461	0.179199219
692.4059	0.178641732
690.47719	0.177579365
688.54849	0.1765
686.61978	0.175995966
684.69107	0.175661914
682.76236	0.175321337
680.83366	0.174273859
678.90495	0.174254317
676.97624	0.173706441
675.04753	0.173773987
673.11883	0.173397954
671.19012	0.173014146
669.26141	0.17262232
667.33271	0.172126596
665.404	0.172181716
663.47529	0.17223796
661.54658	0.171722954
659.61788	0.171197224
657.68917	0.170660432
655.76046	0.170803783
653.83176	0.171052632
651.90305	0.171100363
649.97434	0.170537897
648.04563	0.169857937
646.11693	0.169681847
644.18822	0.169918188
642.25951	0.170266836
640.3308	0.169980757
638.4021	0.168932039
636.47339	0.168627451
634.54468	0.168428005
632.61598	0.168449198
630.68727	0.167794317
628.75856	0.167923235
626.82985	0.167361111
624.90115	0.166783955
622.97244	0.166904422
621.04373	0.166907514
619.11502	0.166788588
617.18632	0.166420118
615.25761	0.166666667
613.3289	0.166666667
611.4002	0.166413374
609.47149	0.166156202
607.54278	0.165895062
605.61407	0.165758755
603.68537	0.165620094
601.75666	0.165610143
