4999.20917	0.654205607
4997.28046	0.653488372
4995.35176	0.651972158
4993.42305	0.652777778
4991.49434	0.651270208
4989.56564	0.652073733
4987.63693	0.650574713
4985.70822	0.651376147
4983.77951	0.652173913
4981.85081	0.650684932
4979.9221	0.651480638
4977.99339	0.652272727
4976.06468	0.653061224
4974.13598	0.655328798
4972.20727	0.653846154
4970.27856	0.653153153
4968.34986	0.653932584
4966.42115	0.65470852
4964.49244	0.653243848
4962.56373	0.654017857
4960.63503	0.654788419
4958.70632	0.653333333
4956.77761	0.654101996
4954.8489	0.654867257
4952.9202	0.653421634
4950.99149	0.654185022
4949.06278	0.654945055
4947.13408	0.653508772
4945.20537	0.654266958
4943.27666	0.655021834
4941.34795	0.65577342
4939.41925	0.654347826
4937.49054	0.655097614
4935.56183	0.655844156
4933.63313	0.656587473
4931.70442	0.657327586
4929.77571	0.655913978
4927.847	0.656652361
4925.9183	0.65738758
4923.98959	0.656716418
4922.06088	0.655319149
4920.13217	0.657446809
4918.20347	0.656779661
4916.27476	0.655391121
4914.34605	0.656118143
4912.41735	0.656842105
4910.48864	0.657563025
4908.55993	0.656184486
4906.63122	0.656903766
4904.70252	0.65625
4902.77381	0.656964657
4900.8451	0.657676349
4898.91639	0.6563147
4896.98769	0.658385093
4895.05898	0.659090909
4893.13027	0.659793814
4891.20157	0.659137577
4889.27286	0.659836066
4887.34415	0.658486708
4885.41544	0.659183673
4883.48674	0.6598778
4881.55803	0.658536585
4879.62932	0.659229209
4877.70062	0.659919028
4875.77191	0.660606061
4873.8432	0.661290323
4871.91449	0.66064257
4869.98579	0.659318637
4868.05708	0.66
4866.12837	0.65936255
4864.19966	0.660039761
4862.27096	0.658730159
4860.34225	0.659405941
4858.41354	0.660079051
4856.48484	0.659448819
4854.55613	0.661417323
4852.62742	0.660117878
4850.69871	0.659491194
4848.77001	0.66015625
4846.8413	0.660818713
4844.91259	0.661478599
4842.98388	0.662135922
4841.05518	0.660852713
4839.12647	0.66023166
4837.19776	0.66088632
4835.26906	0.661538462
4833.34035	0.6621881
4831.41164	0.66091954
4829.48293	0.661567878
4827.55423	0.660952381
4825.62552	0.661596958
4823.69681	0.662239089
4821.76811	0.662878788
4819.8394	0.663516068
4817.91069	0.664150943
4815.98198	0.662900188
4814.05328	0.662288931
4812.12457	0.662921348
4810.19586	0.661682243
4808.26715	0.661080074
4806.33845	0.661710037
4804.40974	0.662337662
4802.48103	0.662962963
4800.55233	0.663585952
4798.62362	0.664206642
4796.69491	0.663602941
4794.7662	0.664220183
4792.8375	0.664835165
4790.90879	0.665447898
4788.98008	0.666058394
4787.05137	0.665454545
4785.12267	0.664246824
4783.19396	0.664855072
4781.26525	0.665461121
4779.33655	0.664864865
4777.40784	0.665467626
4775.47913	0.666068223
4773.55042	0.665474061
4771.62172	0.666071429
4769.69301	0.664884135
4767.7643	0.665480427
4765.8356	0.664893617
4763.90689	0.665486726
4761.97818	0.666077739
4760.04947	0.666666667
4758.12077	0.666080844
4756.19206	0.666666667
4754.26335	0.667250438
4752.33464	0.666666667
4750.40594	0.667247387
4748.47723	0.667826087
4746.54852	0.667244367
4744.61982	0.667820069
4742.69111	0.668393782
4740.7624	0.667241379
4738.83369	0.666666667
4736.90499	0.66609589
4734.97628	0.666666667
4733.04757	0.667235495
4731.11886	0.667802385
4729.19016	0.667232598
4727.26145	0.66779661
4725.33274	0.668358714
4723.40404	0.668918919
4721.47533	0.669477234
4719.54662	0.668907563
4717.61791	0.669463087
4715.68921	0.67001675
4713.7605	0.670568562
4711.83179	0.67
4709.90308	0.668885191
4707.97438	0.668325041
4706.04567	0.668874172
4704.11696	0.669966997
4702.18826	0.670510708
4700.25955	0.671052632
4698.33084	0.671592775
4696.40213	0.671031097
4694.47343	0.670473083
4692.54472	0.671009772
4690.61601	0.671544715
4688.68731	0.670988655
4686.7586	0.671521036
4684.82989	0.672051696
4682.90118	0.671497585
4680.97248	0.672025723
4679.04377	0.671474359
4677.11506	0.672
4675.18635	0.672523962
4673.25765	0.671974522
4671.32894	0.672496025
4669.40023	0.670364501
4667.47153	0.672468354
4665.54282	0.672985782
4663.61411	0.673501577
4661.6854	0.672955975
4659.7567	0.672413793
4657.82799	0.672926448
4655.89928	0.6734375
4653.97057	0.673946958
4652.04187	0.67340591
4650.11316	0.672868217
4648.18445	0.674922601
4646.25575	0.675425039
4644.32704	0.674884438
4642.39833	0.675384615
4640.46962	0.674846626
4638.54092	0.675344564
4636.61221	0.67480916
4634.6835	0.675304878
4632.7548	0.675799087
4630.82609	0.675265554
4628.89738	0.674242424
4626.96867	0.676248109
4625.03997	0.67571644
4623.11126	0.676204819
4621.18255	0.675675676
4619.25384	0.675149701
4617.32514	0.675635277
4615.39643	0.675111773
4613.46772	0.677083333
4611.53902	0.676557864
4609.61031	0.677037037
4607.6816	0.676514032
4605.75289	0.675994109
4603.82419	0.676470588
4601.89548	0.676945668
4599.96677	0.676427526
4598.03806	0.676900585
4596.10936	0.677372263
4594.18065	0.676855895
4592.25194	0.677325581
4590.32324	0.676811594
4588.39453	0.676300578
4586.46582	0.678210678
4584.53711	0.677697842
4582.60841	0.67816092
4580.6797	0.67765043
4578.75099	0.678111588
4576.82229	0.68
4574.89358	0.679487179
4572.96487	0.678977273
4571.03616	0.679432624
4569.10746	0.678925035
4567.17875	0.679378531
4565.25004	0.678873239
4563.32133	0.679324895
4561.39263	0.680224404
4559.46392	0.67972028
4557.53521	0.680167598
4555.60651	0.679665738
4553.6778	0.680111266
4551.74909	0.680555556
4549.82038	0.680055402
4547.89168	0.679558011
4545.96297	0.68137931
4544.03426	0.68088033
4542.10555	0.681318681
4540.17685	0.680821918
4538.24814	0.681693989
4536.31943	0.68212824
4534.39073	0.681632653
4532.46202	0.682065217
4530.53331	0.681571816
4528.6046	0.681081081
4526.6759	0.682860999
4524.74719	0.682368775
4522.81848	0.682795699
4520.88978	0.68230563
4518.96107	0.681818182
4517.03236	0.683578104
4515.10365	0.684
4513.17495	0.683510638
4511.24624	0.683930943
4509.31753	0.683443709
4507.38882	0.684280053
4505.46012	0.683794466
4503.53141	0.683311432
4501.6027	0.683727034
4499.674	0.684554974
4497.74529	0.68496732
4495.81658	0.684485007
4493.88787	0.684895833
4491.95917	0.684415584
4490.03046	0.683937824
4488.10175	0.684754522
4486.17304	0.68516129
4484.24434	0.684684685
4482.31563	0.686375321
4480.38692	0.687179487
4478.45822	0.687580026
4476.52951	0.685823755
4474.6008	0.685350318
4472.67209	0.686149936
4470.74339	0.686548223
4468.81468	0.687341772
4466.88597	0.686868687
4464.95727	0.687263556
4463.02856	0.686792453
4461.09985	0.686323714
4459.17114	0.685857322
4457.24244	0.6875
4455.31373	0.687032419
4453.38502	0.687810945
4451.45631	0.688198758
4449.52761	0.687732342
4447.5989	0.687268232
4445.67019	0.687654321
4443.74149	0.688423645
4441.81278	0.687960688
4439.88407	0.688343558
4437.95536	0.689106487
4436.02666	0.688644689
4434.09795	0.68902439
4432.16924	0.688564477
4430.24053	0.689320388
4428.31183	0.688861985
4426.38312	0.6904474
4424.45441	0.689987937
4422.52571	0.689530686
4420.597	0.69027611
4418.66829	0.689820359
4416.73958	0.690191388
4414.81088	0.690930788
4412.88217	0.69047619
4410.95346	0.690023753
4409.02476	0.691577699
4407.09605	0.69112426
4405.16734	0.690672963
4403.23863	0.691401649
4401.30993	0.690951821
4399.38122	0.690504103
4397.45251	0.69122807
4395.5238	0.691588785
4393.5951	0.692307692
4391.66639	0.692665891
4389.73768	0.692218351
4387.80898	0.691772885
4385.88027	0.693287037
4383.95156	0.692840647
4382.02285	0.693548387
4380.09415	0.693103448
4378.16544	0.693807339
4376.23673	0.693363844
4374.30802	0.692922374
4372.37932	0.694412771
4370.45061	0.693970421
4368.5219	0.693530079
4366.5932	0.694224236
4364.66449	0.693785311
4362.73578	0.694475761
4360.80707	0.694038245
4358.87837	0.693602694
4356.94966	0.694288914
4355.02095	0.693854749
4353.09225	0.694196429
4351.16354	0.694877506
4349.23483	0.695555556
4347.30612	0.695121951
4345.37742	0.69579646
4343.44871	0.695364238
4341.52	0.694933921
4339.59129	0.696369637
4337.66259	0.695938529
4335.73388	0.69550931
4333.80517	0.696174863
4331.87647	0.695747001
4329.94776	0.69640914
4328.01905	0.69673913
4326.09034	0.696312364
4324.16164	0.696969697
4322.23293	0.69579288
4320.30422	0.697198276
4318.37551	0.697849462
4316.44681	0.697424893
4314.5181	0.697002141
4312.58939	0.697649573
4310.66069	0.697228145
4308.73198	0.69787234
4306.80327	0.698193411
4304.87456	0.69883351
4302.94586	0.699470899
4301.01715	0.69904963
4299.08844	0.699683878
4297.15974	0.699263933
4295.23103	0.699895068
4293.30232	0.69947644
4291.37361	0.700104493
4289.44491	0.699687174
4287.5162	0.699271592
4285.58749	0.699896158
4283.65878	0.699481865
4281.73008	0.700103413
4279.80137	0.699690402
4277.87266	0.70030896
4275.94396	0.699897225
4274.01525	0.700512821
4272.08654	0.700102354
4270.15783	0.700715015
4268.22913	0.701325178
4266.30042	0.700915565
4264.37171	0.701219512
4262.443	0.701825558
4260.5143	0.70242915
4258.58559	0.702020202
4256.65688	0.702620968
4254.72818	0.703219316
4252.79947	0.702811245
4250.87076	0.703406814
4248.94205	0.702297702
4247.01335	0.702891326
4245.08464	0.702487562
4243.15593	0.703078451
4241.22723	0.703666997
4239.29852	0.703264095
4237.36981	0.703849951
4235.4411	0.703448276
4233.5124	0.703048181
4231.58369	0.703631011
4229.65498	0.704211557
4227.72627	0.703812317
4225.79757	0.704390244
4223.86886	0.70496592
4221.94015	0.704567541
4220.01145	0.70514064
4218.08274	0.70571152
4216.15403	0.70531401
4214.22532	0.705882353
4212.29662	0.705769231
4210.36791	0.70537428
4208.4392	0.705938697
4206.51049	0.705544933
4204.58179	0.70610687
4202.65308	0.706666667
4200.72437	0.706273764
4198.79567	0.70683112
4196.86696	0.706439394
4194.93825	0.705382436
4193.00954	0.705937795
4191.08084	0.706491063
4189.15213	0.707042254
4187.22342	0.707591378
4185.29472	0.707202993
4183.36601	0.707749767
4181.4373	0.707362535
4179.50859	0.707906977
4177.57989	0.706864564
4175.65118	0.707407407
4173.72247	0.707948244
4171.79376	0.708487085
4169.86506	0.708371665
4167.93635	0.707988981
4166.00764	0.709174312
4164.07894	0.70970696
4162.15023	0.708675799
4160.22152	0.709206928
4158.29281	0.709736124
4156.36411	0.709355132
4154.4354	0.70988214
4152.50669	0.709764919
4150.57798	0.710288809
4148.64928	0.710810811
4146.72057	0.710431655
4144.79186	0.710313901
4142.86316	0.710832587
4140.93445	0.710455764
4139.00574	0.710972346
4137.07703	0.710596616
4135.14833	0.711111111
4133.21962	0.710992908
4131.29091	0.710619469
4129.36221	0.711130742
4127.4335	0.711013216
4125.50479	0.711521548
4123.57608	0.712028095
4121.64738	0.712532866
4119.71867	0.71216098
4117.78996	0.712663755
4115.86125	0.712543554
4113.93255	0.712173913
4112.00384	0.712673611
4110.07513	0.713171577
4108.14643	0.71366782
4106.21772	0.712683348
4104.28901	0.712564544
4102.3603	0.713058419
4100.4316	0.7135506
4098.50289	0.714041096
4096.57418	0.713675214
4094.64547	0.714163823
4092.71677	0.714650767
4090.78806	0.714528462
4088.85935	0.715012723
4086.93065	0.714890017
4085.00194	0.715371622
4083.07323	0.715008432
4081.14452	0.714886459
4079.21582	0.715365239
4077.28711	0.71440536
4075.3584	0.714882943
4073.4297	0.715358932
4071.50099	0.715237302
4069.57228	0.715710723
4067.64357	0.716182573
4065.71487	0.716652858
4063.78616	0.716294458
4061.85745	0.716763006
4059.92874	0.716639209
4058.00004	0.717105263
4056.07133	0.716981132
4054.14262	0.717444717
4052.21392	0.717320261
4050.28521	0.717781403
4048.3565	0.718241042
4046.42779	0.717303006
4044.49909	0.717761557
4042.57038	0.71763754
4040.64167	0.7180937
4038.71296	0.718548387
4036.78426	0.71842317
4034.85555	0.718072289
4032.92684	0.718524459
4030.99814	0.7184
4029.06943	0.71884984
4027.14072	0.719298246
4025.21201	0.719172633
4023.28331	0.719618745
4021.3546	0.720063442
4019.42589	0.719936709
4017.49719	0.719589258
4015.56848	0.719464145
4013.63977	0.719339623
4011.71106	0.720565149
4009.78236	0.720438528
4007.85365	0.720875684
4005.92494	0.719968799
4003.99623	0.720404984
4002.06753	0.720839813
4000.13882	0.721489527
3998.21011	0.721146398
3996.28141	0.721577726
3994.3527	0.722007722
3992.42399	0.721109399
3990.49528	0.720983859
3988.56658	0.722179586
3986.63787	0.722052067
3984.70916	0.721712538
3982.78045	0.721586575
3980.85175	0.722772277
3978.92304	0.723193916
3976.99433	0.722306525
3975.06563	0.722727273
3973.13692	0.722600151
3971.20821	0.723227753
3969.2795	0.723644578
3967.3508	0.723516153
3965.42209	0.723180795
3963.49338	0.723595506
3961.56468	0.723467862
3959.63597	0.72334079
3957.70726	0.724497394
3955.77855	0.724368499
3953.84985	0.724777448
3951.92114	0.724444444
3949.99243	0.723577236
3948.06372	0.72398524
3946.13502	0.724594993
3944.20631	0.725
3942.2776	0.724871607
3940.3489	0.725475842
3938.42019	0.725346969
3936.49148	0.725747629
3934.56277	0.725418791
3932.63407	0.725818182
3930.70536	0.725689405
3928.77665	0.726285301
3926.84794	0.726156069
3924.91924	0.726027397
3922.99053	0.725701944
3921.06182	0.726096334
3919.13312	0.725771716
3917.20441	0.72688172
3915.2757	0.72694782
3913.34699	0.727532097
3911.41829	0.727402135
3909.48958	0.727272727
3907.56087	0.726756565
3905.63217	0.726241135
3903.70346	0.725726435
3901.77475	0.725601132
3899.84604	0.726887791
3897.91734	0.727144866
3895.98863	0.728421053
3894.05992	0.728100911
3892.13121	0.728481456
3890.20251	0.728351955
3888.2738	0.728730823
3886.34509	0.728412256
3884.41639	0.72828353
3882.48768	0.72815534
3880.55897	0.728719723
3878.63026	0.728778468
3876.70156	0.729338843
3874.77285	0.729023384
3872.84414	0.729209622
3870.91543	0.729395604
3868.98673	0.728767123
3867.05802	0.729323308
3865.12931	0.729195089
3863.20061	0.729748128
3861.2719	0.731160896
3859.34319	0.73102981
3857.41448	0.730352304
3855.48578	0.729124236
3853.55707	0.728629579
3851.62836	0.729912221
3849.69966	0.731363331
3847.77095	0.732083054
3845.84224	0.731951872
3843.91353	0.730974633
3841.98483	0.731154103
3840.05612	0.731333333
3838.12741	0.7310253
3836.1987	0.731739708
3834.27	0.731788079
3832.34129	0.731836196
3830.41258	0.732366513
3828.48388	0.732412886
3826.55517	0.732764281
3824.62646	0.733114754
3822.69775	0.73197903
3820.76905	0.732329843
3818.84034	0.733507511
3816.91163	0.734028683
3814.98292	0.734720416
3813.05422	0.734455959
3811.12551	0.734970911
3809.1968	0.734496124
3807.2681	0.734193548
3805.33939	0.734536082
3803.41068	0.734877735
3801.48197	0.734575835
3799.55327	0.73525641
3797.62456	0.735463259
3795.69585	0.735500319
3793.76715	0.736172918
3791.83844	0.736040609
3789.90973	0.736542115
3787.98102	0.736409608
3786.05232	0.736742424
3784.12361	0.736609956
3782.1949	0.736941473
3780.26619	0.736180905
3778.33749	0.736677116
3776.40878	0.736710444
3774.48007	0.737203496
3772.55137	0.736907731
3770.62266	0.736612702
3768.69395	0.736940299
3766.76524	0.736972705
3764.83654	0.738080495
3762.90783	0.737948084
3760.97912	0.737654321
3759.05041	0.737523105
3757.12171	0.73800738
3755.193	0.73755378
3753.26429	0.737392374
3751.33559	0.736939152
3749.40688	0.737423313
3747.47817	0.737132353
3745.54946	0.737293325
3743.62076	0.737034777
3741.69205	0.738312083
3739.76334	0.7383404
3737.83464	0.737734706
3735.90593	0.737288136
3733.97722	0.737922705
3732.04851	0.738868833
3730.11981	0.73965207
3728.1911	0.74011976
3726.26239	0.739832536
3724.33368	0.739701493
3722.40498	0.74032162
3720.47627	0.74078478
3718.54756	0.740806643
3716.61886	0.741267022
3714.69015	0.740828402
3712.76144	0.740390302
3710.83273	0.74025974
3708.90403	0.741024132
3706.97532	0.741784038
3705.04661	0.741652021
3703.1179	0.741369222
3701.1892	0.74182243
3699.26049	0.742424242
3697.33178	0.742873764
3695.40308	0.742160279
3693.47437	0.742309925
3691.54566	0.741729541
3689.61695	0.742459397
3687.68825	0.742625795
3685.75954	0.74351585
3683.83083	0.743530765
3681.90213	0.743825388
3679.97342	0.743398393
3678.04471	0.74282434
3676.116	0.74282434
3674.1873	0.742840779
3672.25859	0.743853631
3670.32988	0.744292237
3668.40117	0.744027304
3666.47247	0.744753261
3664.54376	0.744765139
3662.61505	0.74519774
3660.68635	0.745485327
3658.75764	0.745064862
3656.82893	0.745208568
3654.90022	0.745075971
3652.97152	0.744656918
3651.04281	0.743950478
3649.1141	0.744094488
3647.18539	0.744812114
3645.25669	0.745251397
3643.32798	0.746376812
3641.39927	0.74624374
3639.47057	0.746111111
3637.54186	0.746392897
3635.61315	0.746674058
3633.68444	0.746260388
3631.75574	0.74556541
3629.82703	0.745011086
3627.89832	0.745575221
3625.96961	0.746416759
3624.04091	0.746974697
3622.1122	0.746974697
3620.18349	0.746424642
3618.25479	0.746293245
3616.32608	0.747120132
3614.39737	0.746440307
3612.46866	0.746579091
3610.53996	0.746856206
3608.61125	0.746724891
3606.68254	0.747821351
3604.75384	0.747826087
3602.82513	0.748236571
3600.89642	0.748373102
3598.96771	0.74864572
3597.03901	0.747971877
3595.1103	0.748244192
3593.18159	0.74811219
3591.25288	0.747844828
3589.32418	0.747306034
3587.39547	0.747578041
3585.46676	0.748120301
3583.53806	0.749196141
3581.60935	0.749598716
3579.68064	0.749465812
3577.75193	0.749733191
3575.82323	0.75
3573.89452	0.749866951
3571.96581	0.75
3570.0371	0.749468085
3568.1084	0.749069644
3566.17969	0.748938429
3564.25098	0.749470339
3562.32228	0.750396616
3560.39357	0.750263992
3558.46486	0.750527426
3556.53615	0.750790306
3554.60745	0.751052632
3552.67874	0.750788644
3550.75003	0.75105042
3548.82133	0.751311647
3546.89262	0.751048218
3544.96391	0.750915751
3543.0352	0.751698902
3541.1065	0.752087683
3539.17779	0.752346194
3537.24908	0.752604167
3535.32037	0.752861602
3533.39167	0.752727273
3531.46296	0.752464971
3529.53425	0.752203214
3527.60555	0.752331606
3525.67684	0.752587992
3523.74813	0.752843847
3521.81942	0.753099174
3519.89072	0.753481176
3517.96201	0.753347065
3516.0333	0.753600823
3514.10459	0.75385406
3512.17589	0.753593429
3510.24718	0.753459764
3508.31847	0.75422427
3506.38977	0.753578732
3504.46106	0.753830439
3502.53235	0.754081633
3500.60364	0.754457463
3498.67494	0.754707379
3496.74623	0.754573171
3494.81752	0.754822335
3492.88882	0.754563895
3490.96011	0.754812563
3489.0314	0.755566802
3487.10269	0.755432036
3485.17399	0.75567895
3483.24528	0.755544355
3481.31657	0.755790534
3479.38786	0.755656109
3477.45916	0.756024096
3475.53045	0.756268806
3473.60174	0.756634952
3471.67304	0.7565
3469.74433	0.756743257
3467.81562	0.756608479
3465.88691	0.756474104
3463.95821	0.756837394
3462.0295	0.756703078
3460.10079	0.757440476
3458.17208	0.757305597
3456.24338	0.757665678
3454.31467	0.757905138
3452.38596	0.757770104
3450.45726	0.758008871
3448.52855	0.757874016
3446.59984	0.757739558
3444.67113	0.758096173
3442.74243	0.758451739
3440.81372	0.758806262
3438.88501	0.759159746
3436.95631	0.75902439
3435.0276	0.759376522
3433.09889	0.759241245
3431.17018	0.759223301
3429.24148	0.759205426
3427.31277	0.75955491
3425.38406	0.759536456
3423.45535	0.759402122
3421.52665	0.759749639
3419.59794	0.760096154
3417.66923	0.760076775
3415.74053	0.760421658
3413.81182	0.759923482
3411.88311	0.760267431
3409.9544	0.760973282
3408.0257	0.760838495
3406.09699	0.760704091
3404.16828	0.761045131
3402.23957	0.761385199
3400.31087	0.761363636
3398.38216	0.761814745
3396.45345	0.761792453
3394.52475	0.761770245
3392.59604	0.76174812
3390.66733	0.761726079
3388.73862	0.76170412
3386.80992	0.762038336
3384.88121	0.762015866
3382.9525	0.762348555
3381.0238	0.762790698
3379.09509	0.763121226
3377.16638	0.762633287
3375.23767	0.763425926
3373.30897	0.763401109
3371.38026	0.763728657
3369.45155	0.763703363
3367.52284	0.763569457
3365.59414	0.763895269
3363.66543	0.763869785
3361.73672	0.763844394
3359.80802	0.76416819
3357.87931	0.764142336
3355.9506	0.764464692
3354.02189	0.764438381
3352.09319	0.76475931
3350.16448	0.764732548
3348.23577	0.76505206
3346.30706	0.765370705
3344.37836	0.764891697
3342.44965	0.765209554
3340.52094	0.765182186
3338.59224	0.765154917
3336.66353	0.765470852
3334.73482	0.765443151
3332.80611	0.765757711
3330.87741	0.765729585
3328.9487	0.766146993
3327.01999	0.766459075
3325.09129	0.76642984
3323.16258	0.766740576
3321.23387	0.766710934
3319.30516	0.766681396
3317.37646	0.766990291
3315.44775	0.766960352
3313.51904	0.766930519
3311.59033	0.76690079
3309.66163	0.767309378
3307.73292	0.76761488
3305.80421	0.767584098
3303.87551	0.767989533
3301.9468	0.767958206
3300.01809	0.76826087
3298.08938	0.768229167
3296.16068	0.768630849
3294.23197	0.768598616
3292.30326	0.768566494
3290.37455	0.768965517
3288.44585	0.768932874
3286.51714	0.769230769
3284.58843	0.769296741
3282.65973	0.769263699
3280.73102	0.76965812
3278.80231	0.769624573
3276.8736	0.769591141
3274.9449	0.769885155
3273.01619	0.770276008
3271.08748	0.769915254
3269.15878	0.769881557
3267.23007	0.769847973
3265.30136	0.770236088
3263.37265	0.77020202
3261.44395	0.770168067
3259.51524	0.770877046
3257.58653	0.770842061
3255.65782	0.770807194
3253.72912	0.770772443
3251.80041	0.771154648
3249.8717	0.771119434
3247.943	0.771499792
3246.01429	0.771464123
3244.08558	0.771428571
3242.15687	0.771393138
3240.22817	0.771770532
3238.29946	0.771734652
3236.37075	0.772427984
3234.44204	0.772391126
3232.51334	0.772447724
3230.58463	0.77241097
3228.65592	0.772374336
3226.72722	0.772745818
3224.79851	0.772708758
3222.8698	0.773078487
3220.94109	0.773041007
3219.01239	0.773003648
3217.08368	0.773371105
3215.15497	0.773737374
3213.22627	0.773699072
3211.29756	0.774063633
3209.36885	0.773713826
3207.44014	0.774077047
3205.51144	0.774038462
3203.58273	0.774
3201.65402	0.774361022
3199.72531	0.774322169
3197.79661	0.774681529
3195.8679	0.775039746
3193.93919	0.77508925
3192.01049	0.775049505
3190.08178	0.775405299
3188.15307	0.775059195
3186.22436	0.775413712
3184.29566	0.775373721
3182.36695	0.77572663
3180.43824	0.776078431
3178.50953	0.776037588
3176.58083	0.776084408
3174.65212	0.776043699
3172.72341	0.776090343
3170.79471	0.776438569
3168.866	0.776397516
3166.93729	0.776356589
3165.00858	0.776702786
3163.07988	0.776747779
3161.15117	0.776706518
3159.22246	0.777050443
3157.29376	0.77739331
3155.36505	0.777735125
3153.43634	0.777394636
3151.50763	0.777735272
3149.57893	0.778074866
3147.65022	0.778032037
3145.72151	0.778073848
3143.7928	0.778031167
3141.8641	0.778072838
3139.93539	0.778114351
3138.00668	0.778449905
3136.07798	0.778406946
3134.14927	0.778447626
3132.22056	0.778404816
3130.29185	0.778737791
3128.36315	0.779069767
3126.43444	0.779400749
3124.50573	0.779065421
3122.57702	0.779022023
3120.64832	0.779061103
3118.71961	0.779389881
3116.7909	0.779717682
3114.8622	0.780126066
3112.93349	0.780081451
3111.00478	0.780118256
3109.07607	0.780442804
3107.14737	0.780110497
3105.21866	0.780147059
3103.28995	0.780469897
3101.36125	0.780791789
3099.43254	0.781112738
3097.50383	0.781147242
3095.57512	0.780816922
3093.64642	0.781136198
3091.71771	0.781170483
3089.789	0.781488203
3087.86029	0.781521739
3085.93159	0.781837916
3084.00288	0.78150957
3082.07417	0.781824739
3080.14547	0.781857451
3078.21676	0.781890047
3076.28805	0.782203086
3074.35934	0.782156933
3072.43064	0.782188841
3070.50193	0.7825
3068.57322	0.782453638
3066.64451	0.78248487
3064.71581	0.78279417
3062.7871	0.782824698
3060.85839	0.782855119
3058.92969	0.783162363
3057.00098	0.783468739
3055.07227	0.783497884
3053.14356	0.783802817
3051.21486	0.783831283
3049.28615	0.784134784
3047.35744	0.784086926
3045.42874	0.784114766
3043.50003	0.784416492
3041.57132	0.784443669
3039.64261	0.784395681
3037.71391	0.784347826
3035.7852	0.784647447
3033.85649	0.784946237
3031.92778	0.784972299
3029.99908	0.78526971
3028.07037	0.785566298
3026.14166	0.785246467
3024.21296	0.785197935
3022.28425	0.785149536
3020.35554	0.785444559
3018.42683	0.785738773
3016.49813	0.786032181
3014.56942	0.785982906
3012.64071	0.786202186
3010.712	0.786493861
3008.7833	0.786444142
3006.85459	0.78666213
3004.92588	0.7866123
3002.99718	0.786562606
3001.06847	0.786779661
2999.13976	0.786996275
2997.21105	0.786874154
2995.28235	0.787356322
2993.35364	0.7875
2991.42493	0.787643484
2989.49623	0.787449393
2987.56752	0.787521079
2985.63881	0.787592717
2983.7101	0.787929872
2981.7814	0.788195616
2979.85269	0.788124157
2977.92398	0.788318704
2975.99527	0.788708587
2974.06657	0.788689468
2972.13786	0.788937903
2970.20915	0.789384144
2968.28045	0.789222374
2966.35174	0.78954561
2964.42303	0.78974359
2962.49432	0.789887257
2960.56562	0.790047716
2958.63691	0.790010194
2956.7082	0.790115098
2954.77949	0.790219224
2952.85079	0.790322581
2950.92208	0.790020094
2948.99337	0.790247161
2947.06467	0.790263421
2945.13596	0.79020979
2943.20725	0.790349418
2941.27854	0.790349418
2939.34984	0.790612517
2937.42113	0.790875791
2935.49242	0.790875791
2933.56372	0.791208791
2931.63501	0.791347754
2929.7063	0.791555851
2927.77759	0.791500664
2925.84889	0.79151475
2923.92018	0.791666667
2921.99147	0.791886544
2920.06276	0.791913215
2918.13406	0.792267366
2916.20535	0.792033954
2914.27664	0.792059876
2912.34794	0.79201817
2910.41923	0.79223301
2908.49052	0.792123951
2906.56181	0.792592593
2904.63311	0.792737789
2902.7044	0.792882334
2900.77569	0.793026232
2898.84698	0.793169486
2896.91828	0.793312102
2894.98957	0.79313632
2893.06086	0.792961319
2891.13216	0.793037975
2889.20345	0.793364929
2887.27474	0.793375394
2885.34603	0.793635791
2883.41733	0.793580868
2881.48862	0.793710692
2879.55991	0.793840352
2877.63121	0.79428392
2875.7025	0.79416379
2873.77379	0.79410843
2871.84508	0.794366197
2869.91638	0.794375
2867.98767	0.794695788
2866.05896	0.79470405
2864.13025	0.794959552
2862.20155	0.795214419
2860.27284	0.794847921
2858.34413	0.79503876
2856.41543	0.79504644
2854.48672	0.795363215
2852.55801	0.795496607
2850.6293	0.795692308
2848.7006	0.795705521
2846.77189	0.795718654
2844.84318	0.795731707
2842.91447	0.795682578
2840.98577	0.795875038
2839.05706	0.796066566
2837.12835	0.79589372
2835.19965	0.796262809
2833.27094	0.796329723
2831.34223	0.796396396
2829.41352	0.796701649
2827.48482	0.796468123
2825.55611	0.796772265
2823.6274	0.796777081
2821.6987	0.796781883
2819.76999	0.796786671
2817.84128	0.797028232
2815.91257	0.796796203
2813.98387	0.797097156
2812.05516	0.797337278
2810.12645	0.797341211
2808.19774	0.797580407
2806.26904	0.797819039
2804.34033	0.797822248
2802.41162	0.79753159
2800.48292	0.797535211
2798.55421	0.798065651
2796.6255	0.798302108
2794.69679	0.798304589
2792.76809	0.798307064
2790.83938	0.798309531
2788.91067	0.798544396
2786.98196	0.798546512
2785.05326	0.798838897
2783.12455	0.79884058
2781.19584	0.799073538
2779.26714	0.799074877
2777.33843	0.798787529
2775.40972	0.799019608
2773.48101	0.799251152
2771.55231	0.799539833
2769.6236	0.799482907
2767.69489	0.799483649
2765.76619	0.799713467
2763.83748	0.799713877
2761.90877	0.799942841
2759.98006	0.800171282
2758.05136	0.800171038
2756.12265	0.800113895
2754.19394	0.800341297
2752.26523	0.800340812
2750.33653	0.800567376
2748.40782	0.800793426
2746.47911	0.800792303
2744.55041	0.800791184
2742.6217	0.801016088
2740.69299	0.801240485
2738.76428	0.801182765
2736.83558	0.801462317
2734.90687	0.801685393
2732.97816	0.801627385
2731.04945	0.801625105
2729.12075	0.801847187
2727.19204	0.801844606
2725.26333	0.801842032
2723.33463	0.802063005
2721.40592	0.801781737
2719.47721	0.802002225
2717.5485	0.802222222
2715.6198	0.801941748
2713.69109	0.802216066
2711.76238	0.802434975
2709.83368	0.802431611
2707.90497	0.802649738
2705.97626	0.802591674
2704.04755	0.802809143
2702.11885	0.802805281
2700.19014	0.802801428
2698.26143	0.803017833
2696.33272	0.803013699
2694.40402	0.803229338
2692.47531	0.803444505
2690.5466	0.803659203
2688.6179	0.803654213
2686.68919	0.803868156
2684.76048	0.804081633
2682.83177	0.804076087
2680.90307	0.804288817
2678.97436	0.804283004
2677.04565	0.804224208
2675.11694	0.804436029
2673.18824	0.804430038
2671.25953	0.804641123
2669.33082	0.804851752
2667.40212	0.804845222
2665.47341	0.804786233
2663.5447	0.804779807
2661.61599	0.80498927
2659.68729	0.804982588
2657.75858	0.80519133
2655.82987	0.805184393
2653.90117	0.805392419
2651.97246	0.805385231
2650.04375	0.805378062
2648.11504	0.805585106
2646.18634	0.805791711
2644.25763	0.805997877
2642.32892	0.805989928
2640.40021	0.805930633
2638.47151	0.805922792
2636.5428	0.806127839
2634.61409	0.805855975
2632.68539	0.806060606
2630.75668	0.806528034
2628.82797	0.806519453
2626.89926	0.806722689
2624.97056	0.806451613
2623.04185	0.806654441
2621.11314	0.806856844
2619.18443	0.807058824
2617.25573	0.807049608
2615.32702	0.807040417
2613.39831	0.807291667
2611.46961	0.80723205
2609.5409	0.807222655
2607.61219	0.807422787
2605.68348	0.807413167
2603.75478	0.807612636
2601.82607	0.807811692
2599.89736	0.807751938
2597.96865	0.807741935
2596.03995	0.807940191
2594.11124	0.80839557
2592.18253	0.808384774
2590.25383	0.808374005
2588.32512	0.808363263
2586.39641	0.808559713
2584.4677	0.808548759
2582.539	0.808744567
2580.61029	0.808939974
2578.68158	0.808928571
2576.75288	0.808917197
2574.82417	0.808857216
2572.89546	0.809100153
2570.96675	0.809294058
2569.03805	0.809282272
2567.10934	0.809475551
2565.18063	0.809463563
2563.25192	0.809451605
2561.32322	0.809439677
2559.39451	0.809631871
2557.4658	0.809823678
2555.5371	0.810015098
2553.60839	0.810002513
2551.67968	0.810193322
2549.75097	0.810180542
2547.82227	0.810370741
2545.89356	0.810357768
2543.96485	0.810547363
2542.03614	0.810534199
2540.10744	0.810521067
2538.17873	0.810709838
2536.25002	0.810696517
2534.32132	0.810884692
2532.39261	0.810871184
2530.4639	0.810857709
2528.53519	0.811292719
2526.60649	0.811479466
2524.67778	0.811465283
2522.74907	0.811651444
2520.82037	0.811637081
2518.89166	0.811622753
2516.96295	0.811808118
2515.03424	0.811793612
2513.10554	0.811779141
2511.17683	0.811963717
2509.24812	0.81214793
2507.31941	0.812133072
2505.39071	0.812118251
2503.462	0.812347487
2501.53329	0.812530473
2499.60459	0.812515218
2497.67588	0.8125
2495.74717	0.812682216
2493.81846	0.812864078
2491.88976	0.812606061
2489.96105	0.8127876
2488.03234	0.812772134
2486.10363	0.812998309
2484.17493	0.813178856
2482.24622	0.81316297
2480.31751	0.813147123
2478.38881	0.813326918
2476.4601	0.813310908
2474.53139	0.813490158
2472.60268	0.813713738
2470.67398	0.813697318
2468.74527	0.813875598
2466.81656	0.81385902
2464.88786	0.813842482
2462.95915	0.814020029
2461.03044	0.814003334
2459.10173	0.814224548
2457.17303	0.81420765
2455.24432	0.814190793
2453.31561	0.814366999
2451.3869	0.814779725
2449.4582	0.814762243
2447.52949	0.814937367
2445.60078	0.814919736
2443.67208	0.814710042
2441.74337	0.815120113
2439.81466	0.815102329
2437.88595	0.815276146
2435.95725	0.815258216
2434.02854	0.815240328
2432.09983	0.815413446
2430.17112	0.815629387
2428.24242	0.815611124
2426.31371	0.815592904
2424.385	0.815574726
2422.4563	0.815556591
2420.52759	0.815960912
2418.59888	0.815942366
2416.67017	0.816155989
2414.74147	0.816137259
2412.81276	0.816350162
2410.88405	0.816331251
2408.95535	0.81650104
2407.02664	0.816481994
2405.09793	0.816462993
2403.16922	0.816674344
2401.24052	0.816655164
2399.31181	0.816636029
2397.3831	0.816804408
2395.45439	0.817014446
2393.52569	0.816994961
2391.59698	0.817391304
2389.66827	0.817371429
2387.73957	0.817165031
2385.81086	0.817373461
2383.88215	0.817353678
2381.95344	0.817519909
2380.02474	0.8175
2378.09603	0.817665758
2376.16732	0.817872533
2374.23861	0.817852288
2372.30991	0.818017202
2370.3812	0.817996835
2368.45249	0.817750678
2366.52379	0.817915162
2364.59508	0.818120352
2362.66637	0.818099955
2360.73766	0.818304475
2358.80896	0.818508535
2356.88025	0.818304172
2354.95154	0.81850773
2353.02284	0.818303871
2351.09413	0.818506929
2349.16542	0.818709533
2347.23671	0.818871292
2345.30801	0.818850267
2343.3793	0.819011576
2341.45059	0.818990438
2339.52188	0.819373473
2337.59318	0.819351975
2335.66447	0.819552206
2333.73576	0.819530558
2331.80706	0.819730148
2329.87835	0.819527281
2327.94964	0.81972639
2326.02093	0.819925061
2324.09223	0.820123294
2322.16352	0.819920844
2320.23481	0.819898968
2318.3061	0.820096534
2316.3774	0.820293666
2314.44869	0.820271454
2312.51998	0.820249289
2310.59128	0.820266434
2308.66257	0.820462478
2306.73386	0.820836966
2304.80515	0.820814283
2302.87645	0.820791649
2300.94774	0.820769064
2299.01903	0.820963542
2297.09033	0.820940819
2295.16162	0.82113469
2293.23291	0.821289485
2291.3042	0.821266479
2289.3755	0.821420859
2287.44679	0.821397757
2285.51808	0.821374704
2283.58937	0.821566939
2281.66067	0.821543754
2279.73196	0.821735395
2277.80325	0.821888412
2275.87455	0.821864952
2273.94584	0.821841542
2272.01713	0.821818182
2270.08842	0.821970507
2268.15972	0.822160547
2266.23101	0.822136916
2264.3023	0.822326374
2262.37359	0.82247765
2260.44489	0.822666383
2258.51618	0.822642311
2256.58747	0.82261829
2254.65877	0.822420004
2252.73006	0.822607959
2250.80135	0.822795517
2248.87264	0.82280887
2246.94394	0.822995781
2245.01523	0.82300885
2243.08652	0.823195117
2241.15782	0.823207904
2239.22911	0.823220659
2237.3004	0.82340604
2235.37169	0.823418517
2233.44299	0.823603264
2231.51428	0.823824451
2229.58557	0.82383636
2227.65686	0.823639775
2225.72816	0.823823407
2223.79945	0.823835275
2221.87074	0.824018284
2219.94204	0.824029882
2218.01333	0.824212272
2216.08462	0.824223602
2214.15591	0.824405377
2212.22721	0.824209874
2210.2985	0.824391251
2208.36979	0.824572253
2206.44108	0.824583076
2204.51238	0.824763472
2202.58367	0.824738032
2200.65496	0.824917898
2198.72626	0.824892352
2196.79755	0.824697932
2194.86884	0.82487725
2192.94013	0.824851829
2191.01143	0.825030625
2189.08272	0.825209056
2187.15401	0.825183374
2185.22531	0.825157745
2183.2966	0.825335502
2181.36789	0.82530977
2179.43918	0.825487013
2177.51048	0.825663896
2175.58177	0.82563791
2173.65306	0.825814283
2171.72435	0.825788197
2169.79565	0.825762164
2167.86694	0.825937878
2165.93823	0.825911747
2164.00953	0.826086957
2162.08082	0.826261814
2160.15211	0.826235436
2158.2234	0.826209111
2156.2947	0.826182839
2154.36599	0.826522436
2152.43728	0.826495898
2150.50857	0.826634673
2148.57987	0.826703978
2146.65116	0.826703978
2144.72245	0.826903858
2142.79375	0.826946108
2140.86504	0.827091633
2138.93633	0.827401074
2137.00762	0.827243844
2135.07892	0.827415195
2133.15021	0.82738803
2131.2215	0.827395091
2129.2928	0.827402135
2127.36409	0.827572585
2125.43538	0.827579404
2123.50667	0.827552227
2121.57797	0.827525103
2119.64926	0.827694729
2117.72055	0.827701375
2115.79184	0.827870461
2113.86314	0.827876887
2111.93443	0.828045437
2110.00572	0.828051643
2108.07702	0.82821966
2106.14831	0.828225649
2104.2196	0.828393136
2102.29089	0.828365478
2100.36219	0.828371278
2098.43348	0.828377065
2096.50477	0.828382838
2094.57606	0.828549263
2092.64736	0.828748547
2090.71865	0.82875387
2088.78994	0.828759181
2086.86124	0.828957529
2084.93253	0.828962592
2083.00382	0.828967643
2081.07511	0.828972682
2079.14641	0.829329233
2077.2177	0.829333845
2075.28899	0.829338447
2073.36029	0.829343038
2071.43158	0.829347618
2069.50287	0.829478111
2067.57416	0.829417383
2065.64546	0.829580153
2063.71675	0.829807509
2061.78804	0.829876308
2059.85933	0.829722539
2057.93063	0.829916477
2056.00192	0.829920364
2054.07321	0.830113636
2052.14451	0.830274361
2050.2158	0.83027783
2048.28709	0.830281291
2046.35838	0.830284744
2044.42968	0.83028819
2042.50097	0.830447874
2040.57226	0.830451128
2038.64355	0.830454375
2036.71485	0.830800975
2034.78614	0.830803822
2032.85743	0.830743306
2030.92873	0.830806663
2029.00002	0.831057063
2027.07131	0.830935924
2025.1426	0.831188211
2023.2139	0.831222057
2021.28519	0.831224414
2019.35648	0.831009481
2017.42778	0.831166419
2015.49907	0.831323066
2013.57036	0.831510658
2011.64165	0.831512683
2009.71295	0.831668516
2007.78424	0.831824062
2005.85553	0.831794682
2003.92682	0.831949825
2001.99812	0.831920383
2000.06941	0.831890996
1998.1407	0.831892588
1996.212	0.831863286
1994.28329	0.831834037
1992.35458	0.831957439
1990.42587	0.832111437
1988.49717	0.832265153
1986.56846	0.832266325
1984.63975	0.832419591
1982.71104	0.832389995
1980.78234	0.832360452
1978.85363	0.832664965
1976.92492	0.832635221
1974.99622	0.832605531
1973.06751	0.832909091
1971.1388	0.833030523
1969.21009	0.832819023
1967.28139	0.832940323
1965.35268	0.8330917
1963.42397	0.833001268
1961.49527	0.833151977
1959.56656	0.833151779
1957.63785	0.833212473
1955.70914	0.833393567
1953.78044	0.83360375
1951.85173	0.833423375
1949.92302	0.833723232
1947.99431	0.833722811
1946.06561	0.833542826
1944.1369	0.833512738
1942.20819	0.833482703
1940.27949	0.833691371
1938.35078	0.833899517
1936.42207	0.834047874
1934.49336	0.834017491
1932.56466	0.834165478
1930.63595	0.834135044
1928.70724	0.834282663
1926.77853	0.834400569
1924.84983	0.834192287
1922.92112	0.834310069
1920.99241	0.834250222
1919.06371	0.834190459
1917.135	0.834189548
1915.20629	0.8344242
1913.27758	0.834599753
1911.34888	0.834716581
1909.42017	0.834685956
1907.49146	0.834831659
1905.56276	0.834830076
1903.63405	0.834975369
1901.70534	0.83494463
1899.77663	0.835236255
1897.84793	0.83535194
1895.91922	0.835292054
1893.99051	0.835261129
1892.0618	0.835201401
1890.1331	0.835141757
1888.20439	0.835285889
1886.27568	0.835633188
1884.34698	0.835776614
1882.41827	0.835745423
1880.48956	0.835888502
1878.56085	0.835857267
1876.63215	0.836
1874.70344	0.835968723
1872.77473	0.835880514
1870.84602	0.835706843
1868.91732	0.835763889
1866.98861	0.835818308
1865.0599	0.836074087
1863.1312	0.836417085
1861.20249	0.836385625
1859.27378	0.836526843
1857.34507	0.836495343
1855.41637	0.836636223
1853.48766	0.836920957
1851.55895	0.836889195
1849.63025	0.836829436
1847.70154	0.836685577
1845.77283	0.836485557
1843.84412	0.836426117
1841.91542	0.83670669
1839.98671	0.837129645
1838.058	0.837125749
1836.12929	0.837264957
1834.20059	0.83706234
1832.27188	0.836919399
1830.34317	0.83680437
1828.41447	0.836915728
1826.48576	0.836912065
1824.55705	0.837078652
1822.62834	0.837272573
1820.69964	0.837438424
1818.77093	0.837548803
1816.84222	0.837659033
1814.91351	0.837911156
1812.98481	0.83779661
1811.0561	0.837709639
1809.12739	0.837819536
1807.19869	0.83809846
1805.26998	0.838011498
1803.34127	0.837842408
1801.41256	0.837842408
1799.48386	0.838066261
1797.55515	0.838175676
1795.62644	0.838175676
1793.69774	0.837924624
1791.76903	0.838093629
1789.84032	0.838426473
1787.91161	0.838704235
1785.98291	0.838704235
1784.0542	0.838704235
1782.12549	0.838731444
1780.19678	0.838758644
1778.26808	0.838981622
1776.33937	0.839123103
1774.41066	0.838987342
1772.48196	0.838709677
1770.55325	0.83876414
1768.62454	0.839068826
1766.69583	0.839400067
1764.76713	0.839481219
1762.83842	0.839595619
1760.90971	0.839710096
1758.981	0.839851652
1757.0523	0.839939281
1755.12359	0.840141796
1753.19488	0.839871491
1751.26618	0.839545917
1749.33747	0.839552239
1747.40876	0.839979637
1745.48005	0.840237691
1743.55135	0.840557539
1741.62264	0.840851064
1739.69393	0.841056218
1737.76523	0.841091219
1735.83652	0.840703432
1733.90781	0.840594567
1731.9791	0.840866451
1730.0504	0.841218516
1728.12169	0.841658172
1726.19298	0.84173028
1724.26427	0.841436558
1722.33557	0.841570752
1720.40686	0.841232227
1718.47815	0.840724441
1716.54945	0.840743872
1714.62074	0.84100489
1712.69203	0.84129119
1710.76332	0.841442953
1708.83462	0.841293782
1706.90591	0.841232624
1704.9772	0.841057387
1703.04849	0.840749415
1701.11979	0.840388155
1699.19108	0.840407754
1697.26237	0.84075371
1695.33367	0.841264559
1693.40496	0.841686027
1691.47625	0.84194831
1689.54754	0.841861235
1687.61884	0.8416432
1685.69013	0.841485657
1683.76142	0.841319847
1681.83272	0.841443231
1679.90401	0.841844323
1677.9753	0.841731373
1676.04659	0.841539987
1674.11789	0.841427156
1672.18918	0.841175499
1670.26047	0.841314399
1668.33176	0.841610295
1666.40306	0.842148624
1664.47435	0.842339374
1662.54564	0.842200626
1660.61694	0.842304527
1658.68823	0.842356426
1656.75952	0.841983852
1654.83081	0.841539987
1652.90211	0.841382732
1650.9734	0.84169693
1649.04469	0.841879637
1647.11598	0.841879637
1645.18728	0.842200626
1643.25857	0.842460122
1641.32986	0.842563681
1639.40116	0.842295675
1637.47245	0.841923267
1635.54374	0.842035908
1633.61503	0.842434211
1631.68633	0.842995566
1629.75762	0.842882942
1627.82891	0.842692939
1625.90021	0.842805519
1623.9715	0.842779694
1622.04279	0.842831335
1620.11408	0.843047119
1618.18538	0.843159796
1616.25667	0.843375472
1614.32796	0.843580915
1612.39925	0.84387287
1610.47055	0.843898444
1608.54184	0.843898444
1606.61313	0.843949566
1604.68443	0.844000655
1602.75572	0.844215349
1600.82701	0.844455348
1598.8983	0.844669719
1596.9696	0.844582448
1595.04089	0.844658608
1593.11218	0.844622164
1591.18347	0.844748858
1589.25477	0.844875346
1587.32606	0.844864073
1585.39735	0.844990241
1583.46865	0.844978876
1581.53994	0.845079571
1579.61123	0.845104725
1577.68252	0.84505441
1575.75382	0.844992696
1573.82511	0.845218801
1571.8964	0.845020243
1569.96769	0.844609906
1568.03899	0.844760673
1566.11028	0.84496124
1564.18157	0.84503632
1562.25287	0.844861021
1560.32416	0.844235751
1558.39545	0.84388664
1556.46674	0.844562934
1554.53804	0.844963739
1552.60933	0.845188285
1550.68062	0.84512705
1548.75192	0.845016077
1546.82321	0.845102139
1544.8945	0.844766506
1542.96579	0.844677419
1541.03709	0.844763595
1539.10838	0.845013694
1537.17967	0.845437018
1535.25096	0.845339323
1533.32226	0.845278179
1531.39355	0.845451634
1529.46484	0.845710627
1527.53614	0.845501121
1525.60743	0.84556232
1523.67872	0.845228549
1521.75001	0.84494382
1519.82131	0.844858014
1517.8926	0.845192308
1515.96389	0.845476381
1514.03518	0.845685929
1512.10648	0.845661223
1510.17777	0.845352564
1508.24906	0.84501845
1506.32036	0.845278179
1504.39165	0.846129239
1502.46294	0.846559157
1500.53423	0.84637496
1498.60553	0.846547315
1496.67682	0.846707161
1494.74811	0.846964856
1492.81941	0.846805112
1490.8907	0.84636291
1488.96199	0.846313769
1487.03328	0.846891482
1485.10458	0.847173427
1483.17587	0.847222222
1481.24716	0.847173427
1479.31845	0.847211124
1477.38975	0.847151088
1475.46104	0.847017319
1473.53233	0.847092836
1471.60363	0.847315976
1469.67492	0.84777367
1467.74621	0.847836577
1465.8175	0.847826087
1463.8888	0.847777062
1461.96009	0.84788914
1460.03138	0.847482247
1458.10267	0.84702458
1456.17397	0.847049313
1454.24526	0.847692804
1452.31655	0.848074754
1450.38785	0.848284748
1448.45914	0.848309179
1446.53043	0.848406823
1444.60172	0.848553055
1442.67302	0.848786759
1440.74431	0.848601736
1438.8156	0.848245896
1436.8869	0.847801578
1434.95819	0.848060518
1433.02948	0.848504342
1431.10077	0.848528702
1429.17207	0.848665166
1427.24336	0.848665166
1425.31465	0.848753017
1423.38594	0.848606861
1421.45724	0.848523955
1419.52853	0.848279205
1417.59982	0.848391789
1415.67112	0.848949919
1413.74241	0.849410244
1411.8137	0.849611902
1409.88499	0.849652047
1407.95629	0.849692258
1406.02758	0.849708171
1404.09887	0.849610642
1402.17016	0.849837662
1400.24146	0.849577648
1398.31275	0.849341784
1396.38404	0.849504307
1394.45534	0.849602079
1392.52663	0.849935107
1390.59792	0.850170261
1388.66921	0.849959448
1386.74051	0.850073016
1384.8118	0.850308141
1382.88309	0.850867239
1380.95439	0.850939728
1379.02568	0.850963875
1377.09697	0.850639883
1375.16826	0.850591476
1373.23956	0.850777706
1371.31085	0.850988014
1369.38214	0.851198187
1367.45343	0.851222276
1365.52473	0.851060385
1363.59602	0.850874352
1361.66731	0.850946755
1359.73861	0.851253032
1357.8099	0.851373183
1355.88119	0.85144518
1353.95248	0.851517108
1352.02378	0.851588966
1350.09507	0.851684669
1348.16636	0.85161914
1346.23765	0.8517147
1344.30895	0.851625362
1342.38024	0.851488335
1340.45153	0.851327434
1338.52283	0.85123834
1336.59412	0.85151856
1334.66541	0.851661583
1332.7367	0.851940969
1330.808	0.851875601
1328.87929	0.851786573
1326.95058	0.851673875
1325.02188	0.85169763
1323.09317	0.85169763
1321.16446	0.851673875
1319.23575	0.851650112
1317.30705	0.851786573
1315.37834	0.851899343
1313.44963	0.851715293
1311.52092	0.851851852
1309.59222	0.851828095
1307.66351	0.85210138
1305.7348	0.852053915
1303.8061	0.852006421
1301.87739	0.852232573
1299.94868	0.852000643
1298.01997	0.852203281
1296.09127	0.85226907
1294.16256	0.852472218
1292.23385	0.852675693
1290.30514	0.852556864
1288.37644	0.85259929
1286.44773	0.85261797
1284.51902	0.852798447
1282.59032	0.852931649
1280.66161	0.852764715
1278.7329	0.85287431
1276.80419	0.853099073
1274.87549	0.853137734
1272.94678	0.853267974
1271.01807	0.853326778
1269.08937	0.853405726
1267.16066	0.853670635
1265.23195	0.853772017
1263.30324	0.853878232
1261.37454	0.853968254
1259.44583	0.853780671
1257.51712	0.853955037
1255.58841	0.854177047
1253.65971	0.854135588
1251.731	0.854090759
1249.80229	0.854090759
1247.87359	0.853994034
1245.94488	0.853872947
1244.01617	0.853869146
1242.08746	0.853865337
1240.15876	0.853670717
1238.23005	0.853784595
1236.30134	0.853898814
1234.37263	0.853988961
1232.44393	0.853936348
1230.51522	0.853883577
1228.58651	0.853998656
1226.65781	0.853945819
1224.7291	0.854036744
1222.80039	0.854127976
1220.87168	0.854194858
1218.94298	0.854117248
1217.01427	0.854354099
1215.08556	0.854421769
1213.15686	0.854464894
1211.22815	0.854508197
1209.29944	0.854697929
1207.37073	0.854716981
1205.44203	0.854736118
1203.51332	0.854755341
1201.58461	0.854627072
1199.6559	0.854646133
1197.7272	0.85483871
1195.79849	0.854858335
1193.86978	0.855052265
1191.94108	0.855097765
1190.01237	0.855143457
1188.08366	0.855163949
1186.15495	0.855159079
1184.22625	0.855077574
1182.29754	0.855298072
1180.36883	0.855419549
1178.44012	0.855492357
1176.51142	0.855438846
1174.58271	0.855690332
1172.654	0.855738291
1170.7253	0.855760616
1168.79659	0.85593677
1166.86788	0.855959669
1164.93917	0.856137184
1163.01047	0.856134636
1161.08176	0.856158172
1159.15305	0.856155665
1157.22435	0.856309263
1155.29564	0.856463705
1153.36693	0.856592701
1151.43822	0.856722457
1149.50952	0.85701107
1147.58081	0.856931334
1145.6521	0.856983655
1143.72339	0.857036347
1141.79469	0.85711614
1139.86598	0.856901725
1137.93727	0.856874177
1136.00857	0.856657865
1134.07986	0.856575213
1132.15115	0.856654642
1130.22244	0.856680008
1128.29374	0.856678148
1126.36503	0.856648732
1124.43632	0.856619066
1122.50761	0.856561349
1120.57891	0.856669912
1118.6502	0.856751468
1116.72149	0.856805665
1114.79279	0.85702986
1112.86408	0.857228077
1110.93537	0.8574
1109.00666	0.857344064
1107.07796	0.857287449
1105.14925	0.857433809
1103.22054	0.857611145
1101.29184	0.857849197
1099.36313	0.857793418
1097.43442	0.857825816
1095.50571	0.857768509
1093.57701	0.857590966
1091.6483	0.857831831
1089.71959	0.857863751
1087.79088	0.858227848
1085.86218	0.858141012
1083.93347	0.858235919
1082.00476	0.858301323
1080.07606	0.858183376
1078.14735	0.858464186
1076.21864	0.85840708
1074.28993	0.858627409
1072.36123	0.858693293
1070.43252	0.859007833
1068.50381	0.85910578
1066.5751	0.859204198
1064.6464	0.859083936
1062.71769	0.859371567
1060.78898	0.85969163
1058.86028	0.859854337
1056.93157	0.859889503
1055.00286	0.85979655
1053.07415	0.859734513
1051.14545	0.859672421
1049.21674	0.860022148
1047.28803	0.859960115
1045.35933	0.860310421
1043.43062	0.860439317
1041.50191	0.860759494
1039.5732	0.86108024
1037.6445	0.861593235
1035.71579	0.861946114
1033.78708	0.862491643
1031.85837	0.862845674
1029.92967	0.863230701
1028.00096	0.863646507
1026.07225	0.863707339
1024.14355	0.863828839
1022.21484	0.863757792
1020.28613	0.863686902
1018.35742	0.863646458
1016.42872	0.863414634
1014.50001	0.863213811
1012.5713	0.862823062
1010.64259	0.86287478
1008.71389	0.862516498
1006.78518	0.862538428
1004.85647	0.862121876
1002.92777	0.862242663
1000.99906	0.862333114
999.07035	0.862363239
997.14164	0.861955808
995.21294	0.862114248
993.28423	0.861834903
991.35552	0.861713785
989.42682	0.861720808
987.49811	0.861697449
985.5694	0.861643534
983.64069	0.861939474
981.71199	0.862397518
979.78328	0.862766904
977.85457	0.863301318
975.92586	0.863615971
973.99716	0.863963964
972.06845	0.86415009
970.13974	0.864821955
968.21104	0.86552901
966.28233	0.866042903
964.35362	0.866361556
962.42491	0.866681964
960.49621	0.866774045
958.5675	0.867066697
956.63879	0.867299676
954.71008	0.867503487
952.78138	0.867444574
950.85267	0.867526377
948.92396	0.867577757
946.99526	0.867772512
945.06655	0.867906533
943.13784	0.867978877
941.20913	0.867956469
939.28043	0.868080956
937.35172	0.868388684
935.42301	0.868636702
933.49431	0.868889446
931.5656	0.869147051
929.63689	0.869254341
927.70818	0.869397218
925.77948	0.869090909
923.85077	0.869075674
921.92206	0.869025614
919.99335	0.8689747
918.06465	0.868887695
916.13594	0.868763557
914.20723	0.868838992
912.27853	0.869120089
910.34982	0.869334079
908.42111	0.869232947
906.4924	0.869378402
904.5637	0.86923746
902.63499	0.869386557
900.70628	0.869100623
898.77757	0.869186919
896.84887	0.869051228
894.92016	0.868912711
892.99145	0.869349845
891.06275	0.869170579
889.13404	0.869262425
887.20533	0.869356388
885.27662	0.869452543
883.34792	0.868938401
881.41921	0.86907524
879.4905	0.868967828
877.5618	0.868608195
875.63309	0.868673051
873.70438	0.868530021
871.77567	0.868521739
869.84697	0.868559411
867.91826	0.868597669
865.98955	0.868636525
864.06084	0.868053066
862.13214	0.867822319
860.20343	0.867951983
858.27472	0.867765568
856.34602	0.867256637
854.41731	0.867112101
852.4886	0.86696562
850.55989	0.867193378
848.63119	0.867095797
846.70248	0.867047619
844.77377	0.866717733
842.84506	0.867154409
840.91636	0.866873065
838.98765	0.866588876
837.05894	0.866640594
835.13024	0.866352201
833.20153	0.866455946
831.27282	0.866269841
829.34411	0.866082104
827.41541	0.865839007
825.4867	0.865539452
823.55799	0.865641441
821.62929	0.865392436
819.70058	0.865958316
817.77187	0.865818629
815.84316	0.865210223
813.91446	0.864596273
811.98575	0.864336246
810.05704	0.864016736
808.12833	0.863751051
806.19963	0.863540346
804.27092	0.863443596
802.34221	0.863462356
800.41351	0.863171355
798.4848	0.863054608
796.55609	0.862996159
794.62738	0.862627986
792.69868	0.862260128
790.76997	0.861951427
788.84126	0.861276596
786.91255	0.860969388
784.98385	0.861028474
783.05514	0.861087511
781.12643	0.861571125
779.19773	0.861264319
777.26902	0.861323155
775.34031	0.861016949
773.4116	0.861134632
771.4829	0.860946746
769.55419	0.860337553
767.62548	0.86009271
765.69678	0.859848485
763.76807	0.859966358
761.83936	0.860445565
759.91065	0.860445565
757.98195	0.860025221
756.05324	0.860328145
754.12453	0.860994103
752.19582	0.861239983
750.26712	0.861005492
748.33841	0.860347017
746.4097	0.860415783
744.481	0.8604849
742.55229	0.860494881
740.62358	0.86130137
738.69487	0.860515021
736.76617	0.860094705
734.83746	0.860475162
732.90875	0.860797918
730.98004	0.860687854
729.05134	0.860576923
727.12263	0.860403863
725.19392	0.860167622
723.26522	0.860310421
721.33651	0.86090058
719.4078	0.861434978
717.47909	0.861587015
715.55039	0.861287398
713.62168	0.861377109
711.69297	0.86186324
709.76427	0.861495845
707.83556	0.861524164
705.90685	0.861552853
703.97814	0.861581921
702.04944	0.862019915
700.12073	0.861986628
698.19202	0.861952862
696.26331	0.861918605
694.33461	0.861816406
692.4059	0.862204724
690.47719	0.862599206
688.54849	0.8625
686.61978	0.862329803
684.69107	0.862525458
682.76236	0.863239075
680.83366	0.862551867
678.90495	0.86237572
676.97624	0.861668427
675.04753	0.861940299
673.11883	0.861604739
671.19012	0.861806311
669.26141	0.862012095
667.33271	0.86285397
665.404	0.862591139
663.47529	0.862322946
661.54658	0.862049227
659.61788	0.862348178
657.68917	0.862068966
655.76046	0.862884161
653.83176	0.863636364
651.90305	0.863361548
649.97434	0.863080685
648.04563	0.863495985
646.11693	0.864004991
644.18822	0.863436123
642.25951	0.863405337
640.3308	0.864015394
638.4021	0.86407767
636.47339	0.864052288
634.54468	0.863936592
632.61598	0.864973262
630.68727	0.865358593
628.75856	0.864976011
626.82985	0.865277778
624.90115	0.865587614
622.97244	0.866619116
621.04373	0.867052023
619.11502	0.866130212
617.18632	0.865384615
615.25761	0.865470852
613.3289	0.865007541
611.4002	0.864741641
609.47149	0.866003063
607.54278	0.866512346
605.61407	0.86692607
603.68537	0.866562009
601.75666	0.867670365
