4999.20917	0.098823529
4997.28046	0.098360656
4995.35176	0.098130841
4993.42305	0.097902098
4991.49434	0.097674419
4989.56564	0.097447796
4987.63693	0.097222222
4985.70822	0.099537037
4983.77951	0.099307159
4981.85081	0.099078341
4979.9221	0.098850575
4977.99339	0.098623853
4976.06468	0.098398169
4974.13598	0.098173516
4972.20727	0.10022779
4970.27856	0.10022779
4968.34986	0.1
4966.42115	0.099773243
4964.49244	0.099547511
4962.56373	0.097065463
4960.63503	0.096846847
4958.70632	0.096629213
4956.77761	0.096412556
4954.8489	0.096196868
4952.9202	0.095982143
4950.99149	0.097995546
4949.06278	0.097777778
4947.13408	0.097560976
4945.20537	0.097345133
4943.27666	0.097130243
4941.34795	0.0969163
4939.41925	0.096703297
4937.49054	0.096491228
4935.56183	0.096280088
4933.63313	0.096069869
4931.70442	0.095860566
4929.77571	0.095652174
4927.847	0.097613883
4925.9183	0.097402597
4923.98959	0.097192225
4922.06088	0.096982759
4920.13217	0.096774194
4918.20347	0.096566524
4916.27476	0.096359743
4914.34605	0.096153846
4912.41735	0.095948827
4910.48864	0.095744681
4908.55993	0.095541401
4906.63122	0.095338983
4904.70252	0.095137421
4902.77381	0.094936709
4900.8451	0.094736842
4898.91639	0.094537815
4896.98769	0.096436059
4895.05898	0.09623431
4893.13027	0.096033403
4891.20157	0.09375
4889.27286	0.095634096
4887.34415	0.095435685
4885.41544	0.095238095
4883.48674	0.094845361
4881.55803	0.094650206
4879.62932	0.092592593
4877.70062	0.092213115
4875.77191	0.09202454
4873.8432	0.093877551
4871.91449	0.093686354
4869.98579	0.093495935
4868.05708	0.093306288
4866.12837	0.092929293
4864.19966	0.092929293
4862.27096	0.092741935
4860.34225	0.092555332
4858.41354	0.09437751
4856.48484	0.094188377
4854.55613	0.094
4852.62742	0.093812375
4850.69871	0.093439364
4848.77001	0.093253968
4846.8413	0.093069307
4844.91259	0.092885375
4842.98388	0.092885375
4841.05518	0.09270217
4839.12647	0.092337917
4837.19776	0.094117647
4835.26906	0.093933464
4833.34035	0.09375
4831.41164	0.093567251
4829.48293	0.091439689
4827.55423	0.091262136
4825.62552	0.090909091
4823.69681	0.092664093
4821.76811	0.092485549
4819.8394	0.092307692
4817.91069	0.092130518
4815.98198	0.091954023
4814.05328	0.091603053
4812.12457	0.091428571
4810.19586	0.091254753
4808.26715	0.091081594
4806.33845	0.090909091
4804.40974	0.09073724
4802.48103	0.090566038
4800.55233	0.09039548
4798.62362	0.090056285
4796.69491	0.08988764
4794.7662	0.089719626
4792.8375	0.089552239
4790.90879	0.089385475
4788.98008	0.089053803
4787.05137	0.090740741
4785.12267	0.090573013
4783.19396	0.090405904
4781.26525	0.090239411
4779.33655	0.089908257
4777.40784	0.08974359
4775.47913	0.089579525
4773.55042	0.089416058
4771.62172	0.089253188
4769.69301	0.089090909
4767.7643	0.08892922
4765.8356	0.088768116
4763.90689	0.088447653
4761.97818	0.088288288
4760.04947	0.089928058
4758.12077	0.087971275
4756.19206	0.08781362
4754.26335	0.08765653
4752.33464	0.087344029
4750.40594	0.088967972
4748.47723	0.088652482
4746.54852	0.088495575
4744.61982	0.088339223
4742.69111	0.088183422
4740.7624	0.088028169
4738.83369	0.087873462
4736.90499	0.087719298
4734.97628	0.087412587
4733.04757	0.087260035
4731.11886	0.086956522
4729.19016	0.086805556
4727.26145	0.086655113
4725.33274	0.088235294
4723.40404	0.088082902
4721.47533	0.087931034
4719.54662	0.087628866
4717.61791	0.087478559
4715.68921	0.087328767
4713.7605	0.087030717
4711.83179	0.086882453
4709.90308	0.086734694
4707.97438	0.086587436
4706.04567	0.086440678
4704.11696	0.086294416
4702.18826	0.086003373
4700.25955	0.085858586
4698.33084	0.08557047
4696.40213	0.085427136
4694.47343	0.086956522
4692.54472	0.086666667
4690.61601	0.086522463
4688.68731	0.086378738
4686.7586	0.084577114
4684.82989	0.084297521
4682.90118	0.084158416
4680.97248	0.085667216
4679.04377	0.085385878
4677.11506	0.085245902
4675.18635	0.085106383
4673.25765	0.08496732
4671.32894	0.084828711
4669.40023	0.084552846
4667.47153	0.084415584
4665.54282	0.085760518
4663.61411	0.084006462
4661.6854	0.083870968
4659.7567	0.08373591
4657.82799	0.083601286
4655.89928	0.083333333
4653.97057	0.0848
4652.04187	0.084529506
4650.11316	0.084394904
4648.18445	0.084260731
4646.25575	0.083993661
4644.32704	0.083728278
4642.39833	0.083596215
4640.46962	0.083464567
4638.54092	0.08490566
4636.61221	0.0830721
4634.6835	0.082942097
4632.7548	0.084375
4630.82609	0.082554517
4628.89738	0.082426128
4626.96867	0.082170543
4625.03997	0.083591331
4623.11126	0.083333333
4621.18255	0.083204931
4619.25384	0.083076923
4617.32514	0.082949309
4615.39643	0.082695253
4613.46772	0.082442748
4611.53902	0.082317073
4609.61031	0.082191781
4607.6816	0.082066869
4605.75289	0.081818182
4603.82419	0.081694402
4601.89548	0.081447964
4599.96677	0.081325301
4598.03806	0.082706767
4596.10936	0.082458771
4594.18065	0.082335329
4592.25194	0.080597015
4590.32324	0.0804769
4588.39453	0.080357143
4586.46582	0.081602374
4584.53711	0.081481481
4582.60841	0.081240768
4580.6797	0.081120944
4578.75099	0.081001473
4576.82229	0.080763583
4574.89358	0.080645161
4572.96487	0.081871345
4571.03616	0.081751825
4569.10746	0.081513828
4567.17875	0.081395349
4565.25004	0.08115942
4563.32133	0.07959479
4561.39263	0.079479769
4559.46392	0.080691643
4557.53521	0.08057554
4555.60651	0.080344333
4553.6778	0.080229226
4551.74909	0.08
4549.82038	0.079885877
4547.89168	0.07977208
4545.96297	0.079545455
4544.03426	0.079432624
4542.10555	0.079207921
4540.17685	0.079096045
4538.24814	0.078873239
4536.31943	0.078762307
4534.39073	0.078541374
4532.46202	0.078431373
4530.53331	0.078321678
4528.6046	0.079497908
4526.6759	0.079387187
4524.74719	0.079166667
4522.81848	0.079056865
4520.88978	0.078838174
4518.96107	0.07862069
4517.03236	0.078512397
4515.10365	0.078296703
4513.17495	0.0781893
4511.24624	0.077975376
4509.31753	0.077868852
4507.38882	0.077656676
4505.46012	0.07755102
4503.53141	0.07734057
4501.6027	0.077235772
4499.674	0.078378378
4497.74529	0.078272605
4495.81658	0.078061911
4493.88787	0.077956989
4491.95917	0.077747989
4490.03046	0.077643909
4488.10175	0.077436582
4486.17304	0.077333333
4484.24434	0.07712766
4482.31563	0.077025232
4480.38692	0.076821192
4478.45822	0.07661823
4476.52951	0.07651715
4474.6008	0.076315789
4472.67209	0.076215506
4470.74339	0.076015727
4468.81468	0.075816993
4466.88597	0.075718016
4464.95727	0.075520833
4463.02856	0.076723017
4461.09985	0.076523995
4459.17114	0.07642487
4457.24244	0.07622739
4455.31373	0.076129032
4453.38502	0.075933076
4451.45631	0.075835476
4449.52761	0.075641026
4447.5989	0.07544757
4445.67019	0.075351213
4443.74149	0.075159236
4441.81278	0.075063613
4439.88407	0.074873096
4437.95536	0.0747782
4436.02666	0.074589128
4434.09795	0.075662043
4432.16924	0.075566751
4430.24053	0.075376884
4428.31183	0.07518797
4426.38312	0.075093867
4424.45441	0.073657928
4422.52571	0.073566085
4420.597	0.073383085
4418.66829	0.074534161
4416.73958	0.074349442
4414.81088	0.074165637
4412.88217	0.073982737
4410.95346	0.073800738
4409.02476	0.073710074
4407.09605	0.073529412
4405.16734	0.073439412
4403.23863	0.073260073
4401.30993	0.073170732
4399.38122	0.072992701
4397.45251	0.072815534
4395.5238	0.073939394
4393.5951	0.07376058
4391.66639	0.073671498
4389.73768	0.073493976
4387.80898	0.072115385
4385.88027	0.073229292
4383.95156	0.073053892
4382.02285	0.072879331
4380.09415	0.072792363
4378.16544	0.072619048
4376.23673	0.072532699
4374.30802	0.072360617
4372.37932	0.072189349
4370.45061	0.07201889
4368.5219	0.071849234
4366.5932	0.071764706
4364.66449	0.071596244
4362.73578	0.071428571
4360.80707	0.071261682
4358.87837	0.071095571
4356.94966	0.072093023
4355.02095	0.072009292
4353.09225	0.070683662
4351.16354	0.070520231
4349.23483	0.071593533
4347.30612	0.071428571
4345.37742	0.071346375
4343.44871	0.071182549
4341.52	0.071019473
4339.59129	0.070857143
4337.66259	0.070695553
4335.73388	0.070615034
4333.80517	0.070454545
4331.87647	0.070294785
4329.94776	0.070135747
4328.01905	0.070056497
4326.09034	0.069898534
4324.16164	0.069741282
4322.23293	0.070707071
4320.30422	0.070627803
4318.37551	0.070469799
4316.44681	0.0703125
4314.5181	0.070155902
4312.58939	0.07
4310.66069	0.069844789
4308.73198	0.069767442
4306.80327	0.06961326
4304.87456	0.069459757
4302.94586	0.069306931
4301.01715	0.069230769
4299.08844	0.069078947
4297.15974	0.06892779
4295.23103	0.068777293
4293.30232	0.069716776
4291.37361	0.069565217
4289.44491	0.069489685
4287.5162	0.069339112
4285.58749	0.069189189
4283.65878	0.069039914
4281.73008	0.068965517
4279.80137	0.068817204
4277.87266	0.068669528
4275.94396	0.068522484
4274.01525	0.068376068
4272.08654	0.068230277
4270.15783	0.068085106
4268.22913	0.068012752
4266.30042	0.067868505
4264.37171	0.067724868
4262.443	0.067581837
4260.5143	0.06743941
4258.58559	0.067297581
4256.65688	0.067156348
4254.72818	0.067015707
4252.79947	0.066875653
4250.87076	0.067849687
4248.94205	0.067708333
4247.01335	0.067637877
4245.08464	0.067497404
4243.15593	0.067357513
4241.22723	0.066184074
4239.29852	0.067010309
4237.36981	0.066872428
4235.4411	0.0668037
4233.5124	0.066666667
4231.58369	0.066530194
4229.65498	0.06639428
4227.72627	0.067278287
4225.79757	0.06612411
4223.86886	0.065989848
4221.94015	0.06585613
4220.01145	0.065789474
4218.08274	0.065656566
4216.15403	0.065524194
4214.22532	0.065392354
4212.29662	0.065261044
4210.36791	0.065130261
4208.4392	0.066066066
4206.51049	0.065868263
4204.58179	0.065737052
4202.65308	0.065606362
4200.72437	0.06547619
4198.79567	0.065346535
4196.86696	0.065217391
4194.93825	0.065088757
4193.00954	0.06496063
4191.08084	0.064896755
4189.15213	0.064769382
4187.22342	0.064642507
4185.29472	0.064516129
4183.36601	0.064390244
4181.4373	0.064327485
4179.50859	0.065111759
4177.57989	0.064985451
4175.65118	0.064859632
4173.72247	0.0647343
4171.79376	0.06460945
4169.86506	0.064485082
4167.93635	0.064361191
4166.00764	0.064176245
4164.07894	0.064053537
4162.15023	0.063992359
4160.22152	0.063870353
4158.29281	0.063748811
4156.36411	0.06362773
4154.4354	0.063507109
4152.50669	0.063386944
4150.57798	0.063267233
4148.64928	0.063147974
4146.72057	0.063029163
4144.79186	0.063789869
4142.86316	0.063670412
4140.93445	0.063551402
4139.00574	0.063432836
4137.07703	0.063314711
4135.14833	0.063197026
4133.21962	0.062152134
4131.29091	0.062037037
4129.36221	0.061979648
4127.4335	0.061865189
4125.50479	0.062672811
4123.57608	0.0625
4121.64738	0.062385321
4119.71867	0.062271062
4117.78996	0.062157221
4115.86125	0.062043796
4113.93255	0.061930783
4112.00384	0.061818182
4110.07513	0.061705989
4108.14643	0.061538462
4106.21772	0.061427281
4104.28901	0.062218215
4102.3603	0.061206121
4100.4316	0.061096137
4098.50289	0.060986547
4096.57418	0.061772605
4094.64547	0.061662198
4092.71677	0.061552186
4090.78806	0.061442565
4088.85935	0.060444444
4086.93065	0.061170213
4085.00194	0.061061947
4083.07323	0.060954064
4081.14452	0.060846561
4079.21582	0.060739437
4077.28711	0.060632689
4075.3584	0.060526316
4073.4297	0.060420315
4071.50099	0.061188811
4069.57228	0.061082024
4067.64357	0.060922541
4065.71487	0.060816681
4063.78616	0.060711188
4061.85745	0.060606061
4059.92874	0.06044905
4058.00004	0.060344828
4056.07133	0.060240964
4054.14262	0.060085837
4052.21392	0.060034305
4050.28521	0.059931507
4048.3565	0.05982906
4046.42779	0.059726962
4044.49909	0.059574468
4042.57038	0.059473237
4040.64167	0.058524173
4038.71296	0.058425064
4036.78426	0.059121622
4034.85555	0.059021922
4032.92684	0.058922559
4030.99814	0.058823529
4029.06943	0.058675608
4027.14072	0.058577406
4025.21201	0.059314954
4023.28331	0.059216013
4021.3546	0.05906822
4019.42589	0.0589701
4017.49719	0.058872305
4015.56848	0.058774834
4013.63977	0.058677686
4011.71106	0.058532564
4009.78236	0.058436214
4007.85365	0.058340181
4005.92494	0.057377049
4003.99623	0.057283142
4002.06753	0.057189542
4000.13882	0.057864711
3998.21011	0.057770545
3996.28141	0.057676686
3994.3527	0.057583131
3992.42399	0.057489879
3990.49528	0.058205335
3988.56658	0.05811138
3986.63787	0.057165862
3984.70916	0.057073955
3982.78045	0.057738573
3980.85175	0.057646117
3978.92304	0.057553957
3976.99433	0.057462091
3975.06563	0.056573705
3973.13692	0.056438792
3971.20821	0.056349206
3969.2795	0.057007126
3967.3508	0.056916996
3965.42209	0.056827151
3963.49338	0.056737589
3961.56468	0.056603774
3959.63597	0.056514914
3957.70726	0.056426332
3955.77855	0.05629398
3953.84985	0.056206089
3951.92114	0.056118472
3949.99243	0.056031128
3948.06372	0.055944056
3946.13502	0.055813953
3944.20631	0.055727554
3942.2776	0.055598456
3940.3489	0.055469954
3938.42019	0.055342045
3936.49148	0.055257099
3934.56277	0.055214724
3932.63407	0.055895865
3930.70536	0.055767762
3928.77665	0.055682685
3926.84794	0.055555556
3924.91924	0.055471125
3922.99053	0.05538695
3921.06182	0.05530303
3919.13312	0.054462935
3917.20441	0.054380665
3915.2757	0.05496988
3913.34699	0.054804805
3911.41829	0.054681648
3909.48958	0.05459985
3907.56087	0.05459985
3905.63217	0.054640719
3903.70346	0.05459985
3901.77475	0.054518297
3899.84604	0.05435592
3897.91734	0.054154303
3895.98863	0.054733728
3894.05992	0.05465288
3892.13121	0.053834808
3890.20251	0.053755523
3888.2738	0.053676471
3886.34509	0.053637032
3884.41639	0.053519062
3882.48768	0.053401609
3880.55897	0.053284672
3878.63026	0.053857351
3876.70156	0.053740015
3874.77285	0.053701016
3872.84414	0.053701016
3870.91543	0.053662074
3868.98673	0.053545586
3867.05802	0.053391053
3865.12931	0.053275738
3863.20061	0.05316092
3861.2719	0.053008596
3859.34319	0.052894925
3857.41448	0.052932761
3855.48578	0.053084648
3853.55707	0.053046595
3851.62836	0.05274412
3849.69966	0.052445074
3847.77095	0.052259887
3845.84224	0.052223006
3843.91353	0.052186178
3841.98483	0.052149401
3840.05612	0.052112676
3838.12741	0.052039381
3836.1987	0.051893408
3834.27	0.051748252
3832.34129	0.052337753
3830.41258	0.052192067
3828.48388	0.052083333
3826.55517	0.051282051
3824.62646	0.051282051
3822.69775	0.051282051
3820.76905	0.051211073
3818.84034	0.051759834
3816.91163	0.051652893
3814.98292	0.051475635
3813.05422	0.051983584
3811.12551	0.051877133
3809.1968	0.051194539
3807.2681	0.051124744
3805.33939	0.05105514
3803.41068	0.051020408
3801.48197	0.050951087
3799.55327	0.050813008
3797.62456	0.050675676
3795.69585	0.051212938
3793.76715	0.051075269
3791.83844	0.050938338
3789.90973	0.05083612
3787.98102	0.050768203
3786.05232	0.050033356
3784.12361	0.049933422
3782.1949	0.049867021
3780.26619	0.049833887
3778.33749	0.05036448
3776.40878	0.050231328
3774.48007	0.050131926
3772.55137	0.050098879
3770.62266	0.050065876
3768.69395	0.049967127
3766.76524	0.049868766
3764.83654	0.050425671
3762.90783	0.050326797
3760.97912	0.049608355
3759.05041	0.049543677
3757.12171	0.049446975
3755.193	0.049414824
3753.26429	0.049479167
3751.33559	0.049479167
3749.40688	0.049382716
3747.47817	0.049286641
3745.54946	0.048638132
3743.62076	0.048480931
3741.69205	0.048874598
3739.76334	0.048749198
3737.83464	0.048780488
3735.90593	0.048749198
3733.97722	0.04862444
3732.04851	0.048438496
3730.11981	0.048888889
3728.1911	0.048795944
3726.26239	0.048734177
3724.33368	0.048641819
3722.40498	0.048549811
3720.47627	0.048427673
3718.54756	0.048306148
3716.61886	0.048245614
3714.69015	0.048245614
3712.76144	0.047619048
3710.83273	0.047529706
3708.90403	0.047975078
3706.97532	0.047826087
3705.04661	0.047766749
3703.1179	0.047707559
3701.1892	0.047648515
3699.26049	0.047501542
3697.33178	0.047413793
3695.40308	0.047355474
3693.47437	0.047355474
3691.54566	0.047355474
3689.61695	0.047326368
3687.68825	0.047181373
3685.75954	0.047008547
3683.83083	0.047474133
3681.90213	0.047416413
3679.97342	0.046808511
3678.04471	0.046836983
3676.116	0.04686549
3674.1873	0.046780073
3672.25859	0.046666667
3670.32988	0.046581972
3668.40117	0.046441496
3666.47247	0.046246246
3664.54376	0.046734572
3662.61505	0.046678636
3660.68635	0.046622833
3658.75764	0.046622833
3656.82893	0.046594982
3654.90022	0.045915325
3652.97152	0.045915325
3651.04281	0.045970149
3649.1141	0.045942721
3647.18539	0.045778835
3645.25669	0.045616114
3643.32798	0.046072061
3641.39927	0.045990566
3639.47057	0.045936396
3637.54186	0.045882353
3635.61315	0.045828437
3633.68444	0.045828437
3631.75574	0.04526749
3629.82703	0.045320777
3627.89832	0.045187793
3625.96961	0.04502924
3624.04091	0.045507585
3622.1122	0.044924154
3620.18349	0.044924154
3618.25479	0.044871795
3616.32608	0.044793485
3614.39737	0.044741429
3612.46866	0.044715447
3610.53996	0.044689495
3608.61125	0.044611819
3606.68254	0.043930636
3604.75384	0.044405998
3602.82513	0.044354839
3600.89642	0.044303797
3598.96771	0.044252874
3597.03901	0.044202067
3595.1103	0.044151376
3593.18159	0.044100802
3591.25288	0.044050343
3589.32418	0.043478261
3587.39547	0.043428571
3585.46676	0.043899658
3583.53806	0.043799772
3581.60935	0.04375
3579.68064	0.043700341
3577.75193	0.043650794
3575.82323	0.043576684
3573.89452	0.043527417
3571.96581	0.042937853
3570.0371	0.042937853
3568.1084	0.042937853
3566.17969	0.0428652
3564.25098	0.043331458
3562.32228	0.043258427
3560.39357	0.043185642
3558.46486	0.043137255
3556.53615	0.043088976
3554.60745	0.042505593
3552.67874	0.042458101
3550.75003	0.04296875
3548.82133	0.042920847
3546.89262	0.042896936
3544.96391	0.042825362
3543.0352	0.042754026
3541.1065	0.0427066
3539.17779	0.04265928
3537.24908	0.042612064
3535.32037	0.042541436
3533.39167	0.042494481
3531.46296	0.042471042
3529.53425	0.04244763
3527.60555	0.041873278
3525.67684	0.041827188
3523.74813	0.041781198
3521.81942	0.042261251
3519.89072	0.042214912
3517.96201	0.042168675
3516.0333	0.042122538
3514.10459	0.041507373
3512.17589	0.041462084
3510.24718	0.041416894
3508.31847	0.041371802
3506.38977	0.041326808
3504.46106	0.041304348
3502.53235	0.041237113
3500.60364	0.041192412
3498.67494	0.041666667
3496.74623	0.041621622
3494.81752	0.041576674
3492.88882	0.040992449
3490.96011	0.040948276
3489.0314	0.040904198
3487.10269	0.040860215
3485.17399	0.041331186
3483.24528	0.041286863
3481.31657	0.041242635
3479.38786	0.041176471
3477.45916	0.040598291
3475.53045	0.040554963
3473.60174	0.040490144
3471.67304	0.040447046
3469.74433	0.040382572
3467.81562	0.040339703
3465.88691	0.040805511
3463.95821	0.040232927
3462.0295	0.040169133
3460.10079	0.040105541
3458.17208	0.040063258
3456.24338	0.04
3454.31467	0.040462428
3452.38596	0.040419948
3450.45726	0.040377556
3448.52855	0.040335254
3446.59984	0.039748954
3444.67113	0.039707419
3442.74243	0.039645279
3440.81372	0.040104167
3438.88501	0.040041602
3436.95631	0.039979232
3435.0276	0.039917055
3433.09889	0.039855072
3431.17018	0.039793282
3429.24148	0.039731682
3427.31277	0.039670273
3425.38406	0.039609053
3423.45535	0.039548023
3421.52665	0.039487179
3419.59794	0.039426523
3417.66923	0.039345938
3415.74053	0.039285714
3413.81182	0.038716251
3411.88311	0.038676845
3409.9544	0.039126016
3408.0257	0.039086294
3406.09699	0.039026863
3404.16828	0.038967611
3402.23957	0.03890854
3400.31087	0.038849647
3398.38216	0.038790932
3396.45345	0.038712921
3394.52475	0.038654618
3392.59604	0.038577154
3390.66733	0.038
3388.73862	0.037924152
3386.80992	0.03836572
3384.88121	0.038308458
3382.9525	0.038251366
3381.0238	0.038175508
3379.09509	0.038118812
3377.16638	0.038062284
3375.23767	0.038005923
3373.30897	0.037931034
3371.38026	0.037875061
3369.45155	0.037819253
3367.52284	0.03776361
3365.59414	0.037708129
3363.66543	0.037652812
3361.73672	0.03806735
3359.80802	0.038011696
3357.87931	0.037956204
3355.9506	0.037900875
3354.02189	0.037827352
3352.09319	0.037772397
3350.16448	0.037717602
3348.23577	0.037662965
3346.30706	0.037608486
3344.37836	0.037536092
3342.44965	0.03748198
3340.52094	0.037428023
3338.59224	0.037374221
3336.66353	0.037320574
3334.73482	0.037249284
3332.80611	0.037195994
3330.87741	0.037142857
3328.9487	0.037072243
3327.01999	0.037019459
3325.09129	0.036966825
3323.16258	0.03691434
3321.23387	0.036844591
3319.30516	0.036792453
3317.37646	0.036740462
3315.44775	0.036688617
3313.51904	0.036619718
3311.59033	0.036551078
3309.66163	0.036014967
3307.73292	0.035964503
3305.80421	0.036380597
3303.87551	0.036312849
3301.9468	0.036245353
3300.01809	0.036641929
3298.08938	0.036127837
3296.16068	0.036061026
3294.23197	0.03601108
3292.30326	0.0359447
3290.37455	0.035895076
3288.44585	0.035829123
3286.51714	0.036238532
3284.58843	0.036172161
3282.65973	0.036122542
3280.73102	0.035600183
3278.80231	0.035535308
3276.8736	0.035470668
3274.9449	0.035406264
3273.01619	0.035811423
3271.08748	0.035746606
3269.15878	0.035682023
3267.23007	0.035633739
3265.30136	0.035569563
3263.37265	0.035521583
3261.44395	0.03545781
3259.51524	0.035394265
3257.58653	0.035346756
3255.65782	0.035283609
3253.72912	0.035236396
3251.80041	0.035173642
3249.8717	0.035111111
3247.943	0.035064359
3246.01429	0.03501773
3244.08558	0.034955752
3242.15687	0.034893993
3240.22817	0.034847816
3238.29946	0.034786438
3236.37075	0.035164835
3234.44204	0.035103115
3232.51334	0.035041612
3230.58463	0.034980324
3228.65592	0.034497817
3226.72722	0.034437663
3224.79851	0.03437772
3222.8698	0.034332899
3220.94109	0.034273319
3219.01239	0.034213945
3217.08368	0.034154777
3215.15497	0.034095814
3213.22627	0.034051724
3211.29756	0.033993115
3209.36885	0.034364261
3207.44014	0.034290613
3205.51144	0.034246575
3203.58273	0.034188034
3201.65402	0.034129693
3199.72531	0.034086067
3197.79661	0.034028073
3195.8679	0.033970276
3193.93919	0.033912675
3192.01049	0.033855269
3190.08178	0.033798057
3188.15307	0.033755274
3186.22436	0.033698399
3184.29566	0.033641716
3182.36695	0.033585223
3180.43824	0.033528919
3178.50953	0.033472803
3176.58083	0.033416876
3174.65212	0.033778148
3172.72341	0.033305579
3170.79471	0.033250208
3168.866	0.0332088
3166.93729	0.033153751
3165.00858	0.033098883
3163.07988	0.033044197
3161.15117	0.032989691
3159.22246	0.032935364
3157.29376	0.032881217
3155.36505	0.032827247
3153.43634	0.032773454
3151.50763	0.032719836
3149.57893	0.032666394
3147.65022	0.032626427
3145.72151	0.03257329
3143.7928	0.032520325
3141.8641	0.032467532
3139.93539	0.032401782
3138.00668	0.03236246
3136.07798	0.032310178
3134.14927	0.032258065
3132.22056	0.032608696
3130.29185	0.03254319
3128.36315	0.032490975
3126.43444	0.032451923
3124.50573	0.0324
3122.57702	0.032348243
3120.64832	0.032695375
3118.71961	0.032232392
3116.7909	0.032181168
3114.8622	0.032130107
3112.93349	0.032079208
3111.00478	0.03202847
3109.07607	0.031977892
3107.14737	0.031914894
3105.21866	0.031864673
3103.28995	0.031827112
3101.36125	0.031777168
3099.43254	0.03172738
3097.50383	0.031665364
3095.57512	0.032006245
3093.64642	0.031956352
3091.71771	0.03151751
3089.789	0.031857032
3087.86029	0.031795269
3085.93159	0.031358885
3084.00288	0.031322506
3082.07417	0.031274131
3080.14547	0.031611411
3078.21676	0.031550596
3076.28805	0.031502113
3074.35934	0.031441718
3072.43064	0.031393568
3070.50193	0.030963303
3068.57322	0.030927835
3066.64451	0.030880671
3064.71581	0.030833651
3062.7871	0.030786773
3060.85839	0.030728376
3058.92969	0.031060606
3057.00098	0.031013616
3055.07227	0.030955077
3053.14356	0.030908406
3051.21486	0.03048551
3049.28615	0.030827068
3047.35744	0.030780781
3045.42874	0.030734633
3043.50003	0.030688623
3041.57132	0.03064275
3039.64261	0.030597015
3037.71391	0.030540037
3035.7852	0.030494608
3033.85649	0.030449313
3031.92778	0.03041543
3029.99908	0.03037037
3028.07037	0.030325444
3026.14166	0.03028065
3024.21296	0.030235988
3022.28425	0.030202578
3020.35554	0.030158146
3018.42683	0.030113845
3016.49813	0.030080704
3014.56942	0.03003663
3012.64071	0.029992685
3010.712	0.02995981
3008.7833	0.029927007
3006.85459	0.02951895
3004.92588	0.029486713
3002.99718	0.029818182
3001.06847	0.029785688
2999.13976	0.029753266
2997.21105	0.02973169
2995.28235	0.029710145
2993.35364	0.029688631
2991.42493	0.029667149
2989.49623	0.02965642
2987.56752	0.029645698
2985.63881	0.029284165
2983.7101	0.029284165
2981.7814	0.029284165
2979.85269	0.029305355
2977.92398	0.029326575
2975.99527	0.029369108
2974.06657	0.029422448
2972.13786	0.029122679
2970.20915	0.02919708
2968.28045	0.029271862
2966.35174	0.029325513
2964.42303	0.029347029
2962.49432	0.028958944
2960.56562	0.029261156
2958.63691	0.029175784
2956.7082	0.029069767
2954.77949	0.028954035
2952.85079	0.028849621
2950.92208	0.02875629
2948.99337	0.028684116
2947.06467	0.028632785
2945.13596	0.028602074
2943.20725	0.028938907
2941.27854	0.028938907
2939.34984	0.028581636
2937.42113	0.028591851
2935.49242	0.028591851
2933.56372	0.028581636
2931.63501	0.028571429
2929.7063	0.028540849
2927.77759	0.028500178
2925.84889	0.028449502
2923.92018	0.028378858
2921.99147	0.02829855
2920.06276	0.028561354
2918.13406	0.028460998
2916.20535	0.028371278
2914.27664	0.028282123
2912.34794	0.028193526
2910.41923	0.028115238
2908.49052	0.028056806
2906.56181	0.028334485
2904.63311	0.028275862
2902.7044	0.028207774
2900.77569	0.028140014
2898.84698	0.028072578
2896.91828	0.028015032
2894.98957	0.027957722
2893.06086	0.027900646
2891.13216	0.027853261
2889.20345	0.027806036
2887.27474	0.027758971
2885.34603	0.027730808
2883.41733	0.027702703
2881.48862	0.027674654
2879.55991	0.027318718
2877.63121	0.027309508
2875.7025	0.027291105
2873.77379	0.027263548
2871.84508	0.027217742
2869.91638	0.02717209
2867.98767	0.027126591
2866.05896	0.027081244
2864.13025	0.027045075
2862.20155	0.027018012
2860.27284	0.026982012
2858.34413	0.026955075
2856.41543	0.026910299
2854.48672	0.026865672
2852.55801	0.026812314
2850.6293	0.026741499
2848.7006	0.026991442
2846.77189	0.026911716
2844.84318	0.026832461
2842.91447	0.027088773
2840.98577	0.027027027
2839.05706	0.026965562
2837.12835	0.026904376
2835.19965	0.026852151
2833.27094	0.026808786
2831.34223	0.026765559
2829.41352	0.026722473
2827.48482	0.026679524
2825.55611	0.026636714
2823.6274	0.02659404
2821.6987	0.02624
2819.76999	0.026526047
2817.84128	0.026483727
2815.91257	0.026441542
2813.98387	0.026407891
2812.05516	0.026365947
2810.12645	0.026015228
2808.19774	0.026299113
2806.26904	0.026265823
2804.34033	0.026232617
2802.41162	0.026199495
2800.48292	0.025851198
2798.55421	0.025810513
2796.6255	0.025778057
2794.69679	0.026051475
2792.76809	0.026018809
2790.83938	0.025986224
2788.91067	0.025953721
2786.98196	0.025913206
2785.05326	0.025880886
2783.12455	0.025848645
2781.19584	0.025816485
2779.26714	0.025776398
2777.33843	0.025752405
2775.40972	0.025712515
2773.48101	0.025680693
2771.55231	0.025648949
2769.6236	0.025617284
2767.69489	0.025585697
2765.76619	0.025554187
2763.83748	0.025522755
2761.90877	0.0254914
2759.98006	0.025460123
2758.05136	0.025428922
2756.12265	0.025397797
2754.19394	0.025366748
2752.26523	0.025335775
2750.33653	0.025304878
2748.40782	0.025274056
2746.47911	0.025243309
2744.55041	0.025212637
2742.6217	0.025182039
2740.69299	0.025151515
2738.76428	0.025121065
2736.83558	0.025090689
2734.90687	0.025060386
2732.97816	0.025030157
2731.04945	0.025
2729.12075	0.024969916
2727.19204	0.024939904
2725.26333	0.024909964
2723.33463	0.02487264
2721.40592	0.024842861
2719.47721	0.024813154
2717.5485	0.024783517
2715.6198	0.024753952
2713.69109	0.024724456
2711.76238	0.024695031
2709.83368	0.024665676
2707.90497	0.024636391
2705.97626	0.024607175
2704.04755	0.024578028
2702.11885	0.02454895
2700.19014	0.024519941
2698.26143	0.024491
2696.33272	0.024462128
2694.40402	0.024433324
2692.47531	0.024404587
2690.5466	0.024375918
2688.6179	0.024347316
2686.68919	0.024318781
2684.76048	0.024290313
2682.83177	0.024254822
2680.90307	0.024226503
2678.97436	0.024198251
2677.04565	0.024170064
2675.11694	0.024141943
2673.18824	0.024113887
2671.25953	0.024085897
2669.33082	0.024057971
2667.40212	0.02403011
2665.47341	0.024009257
2663.5447	0.023974581
2661.61599	0.023946913
2659.68729	0.023919308
2657.75858	0.023891767
2655.82987	0.02386429
2653.90117	0.023836875
2651.97246	0.023809524
2650.04375	0.023495702
2648.11504	0.023468804
2646.18634	0.023721063
2644.25763	0.023693977
2642.32892	0.023666952
2640.40021	0.023639989
2638.47151	0.023613087
2636.5428	0.023308698
2634.61409	0.023282226
2632.68539	0.023255814
2630.75668	0.023512748
2628.82797	0.023486135
2626.89926	0.023459582
2624.97056	0.023433089
2623.04185	0.023400056
2621.11314	0.023092087
2619.18443	0.023066104
2617.25573	0.02304018
2615.32702	0.023014314
2613.39831	0.022988506
2611.46961	0.022956327
2609.5409	0.022937063
2607.61219	0.022911428
2605.68348	0.022879464
2603.75478	0.022853958
2601.82607	0.022828508
2599.89736	0.022803115
2597.96865	0.022784107
2596.03995	0.022758812
2594.11124	0.022733574
2592.18253	0.022702104
2590.25383	0.022676991
2588.32512	0.022928177
2586.39641	0.022626932
2584.4677	0.022601985
2582.539	0.022570878
2580.61029	0.022546054
2578.68158	0.022521285
2576.75288	0.022496571
2574.82417	0.02247191
2572.89546	0.022447304
2570.96675	0.022416621
2569.03805	0.022392135
2567.10934	0.022367703
2565.18063	0.022343324
2563.25192	0.022318998
2561.32322	0.022566612
2559.39451	0.022542097
2557.4658	0.022517634
2555.5371	0.022216202
2553.60839	0.022192152
2551.67968	0.022438497
2549.75097	0.022144207
2547.82227	0.022114347
2545.89356	0.022090517
2543.96485	0.022066738
2542.03614	0.022043011
2540.10744	0.022019334
2538.17873	0.021995708
2536.25002	0.021972133
2534.32132	0.021942735
2532.39261	0.021919273
2530.4639	0.021890016
2528.53519	0.021866667
2526.60649	0.021843367
2524.67778	0.021820117
2522.74907	0.021796917
2520.82037	0.021773765
2518.89166	0.021750663
2516.96295	0.021721854
2515.03424	0.021698862
2513.10554	0.021675919
2511.17683	0.021653024
2509.24812	0.021630177
2507.31941	0.021607378
2505.39071	0.021584628
2503.462	0.021556257
2501.53329	0.021533613
2499.60459	0.021773347
2497.67588	0.02148284
2495.74717	0.021460351
2493.81846	0.021437908
2491.88976	0.021415513
2489.96105	0.021387585
2488.03234	0.021365294
2486.10363	0.02134305
2484.17493	0.021320853
2482.24622	0.021293171
2480.31751	0.021271077
2478.38881	0.021249028
2476.4601	0.021227026
2474.53139	0.021199586
2472.60268	0.021177686
2470.67398	0.021150374
2468.74527	0.021128575
2466.81656	0.021106821
2464.88786	0.021085112
2462.95915	0.021063447
2461.03044	0.021036429
2459.10173	0.021014864
2457.17303	0.02098797
2455.24432	0.020966505
2453.31561	0.020945083
2451.3869	0.020923705
2449.4582	0.020897044
2447.52949	0.020621181
2445.60078	0.020600203
2443.67208	0.020574041
2441.74337	0.020553159
2439.81466	0.020527116
2437.88595	0.020506329
2435.95725	0.020485584
2434.02854	0.020464881
2432.09983	0.020439061
2430.17112	0.020418452
2428.24242	0.020392749
2426.31371	0.020623742
2424.385	0.020603015
2422.4563	0.020326223
2420.52759	0.020305841
2418.59888	0.020280421
2416.67017	0.02026013
2414.74147	0.02023988
2412.81276	0.020214624
2410.88405	0.020194465
2408.95535	0.020174346
2407.02664	0.020154267
2405.09793	0.020129225
2403.16922	0.020109235
2401.24052	0.020084304
2399.31181	0.020064404
2397.3831	0.020044543
2395.45439	0.020019773
2393.52569	0.02
2391.59698	0.019980266
2389.66827	0.019960572
2387.73957	0.019936008
2385.81086	0.0199164
2383.88215	0.019891945
2381.95344	0.019872424
2380.02474	0.019852941
2378.09603	0.019828641
2376.16732	0.019809244
2374.23861	0.019789885
2372.30991	0.019770564
2370.3812	0.01975128
2368.45249	0.019732034
2366.52379	0.019712826
2364.59508	0.019688867
2362.66637	0.019669743
2360.73766	0.019645889
2358.80896	0.019622093
2356.88025	0.019603098
2354.95154	0.019579405
2353.02284	0.01955577
2351.09413	0.019536903
2349.16542	0.01951337
2347.23671	0.019494585
2345.30801	0.019471154
2343.3793	0.019457122
2341.45059	0.019198464
2339.52188	0.019180053
2337.59318	0.019396552
2335.66447	0.019373356
2333.73576	0.019589107
2331.80706	0.019331742
2329.87835	0.019308701
2327.94964	0.019290307
2326.02093	0.019267364
2324.09223	0.019244476
2322.16352	0.019221642
2320.23481	0.019203414
2318.3061	0.019180677
2316.3774	0.019157994
2314.44869	0.019135365
2312.51998	0.018881284
2310.59128	0.019094767
2308.66257	0.019076778
2306.73386	0.01905434
2304.80515	0.019036428
2302.87645	0.019014085
2300.94774	0.018996248
2299.01903	0.018739752
2297.09033	0.018722209
2295.16162	0.018700327
2293.23291	0.018682858
2291.3042	0.018665422
2289.3755	0.018648019
2287.44679	0.018863531
2285.51808	0.018845975
2283.58937	0.018824076
2281.66067	0.018802228
2279.73196	0.018784787
2277.80325	0.018535681
2275.87455	0.018514233
2273.94584	0.01849711
2272.01713	0.018480018
2270.08842	0.018458699
2268.15972	0.018441678
2266.23101	0.018424689
2264.3023	0.018403497
2262.37359	0.018386578
2260.44489	0.018365473
2258.51618	0.018348624
2256.58747	0.018327606
2254.65877	0.018306636
2252.73006	0.018285714
2250.80135	0.018269011
2248.87264	0.018248175
2246.94394	0.018227387
2245.01523	0.018206645
2243.08652	0.018185951
2241.15782	0.018165304
2239.22911	0.018144704
2237.3004	0.018120045
2235.37169	0.017873303
2233.44299	0.018079096
2231.51428	0.018054615
2229.58557	0.018034265
2227.65686	0.018013961
2225.72816	0.017993702
2223.79945	0.01774882
2221.87074	0.017953321
2219.94204	0.017933199
2218.01333	0.017913121
2216.08462	0.017893089
2214.15591	0.017869109
2212.22721	0.01762606
2210.2985	0.017606419
2208.36979	0.017586821
2206.44108	0.017567267
2204.51238	0.017551655
2202.58367	0.017754106
2200.65496	0.017738359
2198.72626	0.017718715
2196.79755	0.017699115
2194.86884	0.017683466
2192.94013	0.017663943
2191.01143	0.017644464
2189.08272	0.017625028
2187.15401	0.01738939
2185.22531	0.017374093
2183.2966	0.017574692
2181.36789	0.017559263
2179.43918	0.017540013
2177.51048	0.017305586
2175.58177	0.017286652
2173.65306	0.01726776
2171.72435	0.017248908
2169.79565	0.017233857
2167.86694	0.017218832
2165.93823	0.017200087
2164.00953	0.017185121
2162.08082	0.017166449
2160.15211	0.017147819
2158.2234	0.017132943
2156.2947	0.017118093
2154.36599	0.017103269
2152.43728	0.017084775
2150.50857	0.017073698
2148.57987	0.01728235
2146.65116	0.017070009
2144.72245	0.017066321
2142.79375	0.016828479
2140.86504	0.01679225
2138.93633	0.016974645
2137.00762	0.016956428
2135.07892	0.01693825
2133.15021	0.016923736
2131.2215	0.016905628
2129.2928	0.01688395
2127.36409	0.016865927
2125.43538	0.016847942
2123.50667	0.016833582
2121.57797	0.016815666
2119.64926	0.016797789
2117.72055	0.016783514
2115.79184	0.016765705
2113.86314	0.016747933
2111.93443	0.016730199
2110.00572	0.016712503
2108.07702	0.016691316
2106.14831	0.016673702
2104.2196	0.016656125
2102.29089	0.016638585
2100.36219	0.016410688
2098.43348	0.016393443
2096.50477	0.016376233
2094.57606	0.01635906
2092.64736	0.016551435
2090.71865	0.016534115
2088.78994	0.016513378
2086.86124	0.016704949
2084.93253	0.016684046
2083.00382	0.016666667
2081.07511	0.016437786
2079.14641	0.016420703
2077.2177	0.016403654
2075.28899	0.016175861
2073.36029	0.016159105
2071.43158	0.016349338
2069.50287	0.016335815
2067.57416	0.016325687
2065.64546	0.016308836
2063.71675	0.016079159
2061.78804	0.01605599
2059.85933	0.016036184
2057.93063	0.016221766
2056.00192	0.016205128
2054.07321	0.016185208
2052.14451	0.015963979
2050.2158	0.015947659
2048.28709	0.015931373
2046.35838	0.016119159
2044.42968	0.016102731
2042.50097	0.016086337
2040.57226	0.016069976
2038.64355	0.016050386
2036.71485	0.016034098
2034.78614	0.016014596
2032.85743	0.016004862
2030.92873	0.01599838
2029.00002	0.015988666
2027.07131	0.015966047
2025.1426	0.015940274
2023.2139	0.016122531
2021.28519	0.015904973
2019.35648	0.015892175
2017.42778	0.015876206
2015.49907	0.015659506
2013.57036	0.015643803
2011.64165	0.015828491
2009.71295	0.01581265
2007.78424	0.015796841
2005.85553	0.015781063
2003.92682	0.015565755
2001.99812	0.01555334
2000.06941	0.015537849
1998.1407	0.015522388
1996.212	0.015510042
1994.28329	0.015696404
1992.35458	0.015687053
1990.42587	0.015671494
1988.49717	0.015454726
1986.56846	0.01543943
1984.63975	0.015427215
1982.71104	0.01541502
1980.78234	0.015399803
1978.85363	0.01538765
1976.92492	0.015372487
1974.99622	0.015360378
1973.06751	0.015345269
1971.1388	0.015333202
1969.21009	0.015321155
1967.28139	0.015309127
1965.35268	0.015294118
1963.42397	0.015288122
1961.49527	0.015303119
1959.56656	0.015324165
1957.63785	0.015106926
1955.70914	0.015056707
1953.78044	0.01502439
1951.85173	0.015006821
1949.92302	0.014992212
1947.99431	0.015172145
1946.06561	0.015157404
1944.1369	0.015148573
1942.20819	0.014942752
1940.27949	0.014922481
1938.35078	0.014902264
1936.42207	0.015081206
1934.49336	0.015066641
1932.56466	0.015052103
1930.63595	0.015037594
1928.70724	0.015026007
1926.77853	0.015014437
1924.84983	0.01481339
1922.92112	0.014801999
1920.99241	0.014793468
1919.06371	0.014592934
1917.135	0.014578937
1915.20629	0.014556598
1913.27758	0.014537108
1911.34888	0.014528771
1909.42017	0.014708691
1907.49146	0.014694656
1905.56276	0.014487228
1903.63405	0.014473434
1901.70534	0.014272122
1899.77663	0.014451417
1897.84793	0.014440433
1895.91922	0.014432207
1893.99051	0.014421252
1892.0618	0.014410315
1890.1331	0.014402122
1888.20439	0.014577811
1886.27568	0.014561271
1884.34698	0.014355875
1882.41827	0.014345036
1880.48956	0.014334214
1878.56085	0.014323407
1876.63215	0.014500942
1874.70344	0.014490026
1872.77473	0.014481851
1870.84602	0.014481851
1868.91732	0.014291087
1866.98861	0.0142723
1865.0599	0.014248219
1863.1312	0.01423221
1861.20249	0.014218896
1859.27378	0.014208263
1857.34507	0.014381771
1855.41637	0.014368352
1853.48766	0.014354959
1851.55895	0.014157973
1849.63025	0.0141527
1847.70154	0.0141527
1845.77283	0.014157973
1843.84412	0.014147431
1841.91542	0.014121145
1839.98671	0.014094955
1838.058	0.014079289
1836.12929	0.014068863
1834.20059	0.014061055
1832.27188	0.014061055
1830.34317	0.014061055
1828.41447	0.014048059
1826.48576	0.013850416
1824.55705	0.013835086
1822.62834	0.013817244
1820.69964	0.013986014
1818.77093	0.013975726
1816.84222	0.013784231
1814.91351	0.013776635
1812.98481	0.013774105
1811.0561	0.013771575
1809.12739	0.013761468
1807.19869	0.013748854
1805.26998	0.013743815
1803.34127	0.013746334
1801.41256	0.013748854
1799.48386	0.013746334
1797.55515	0.01373878
1795.62644	0.013741297
1793.69774	0.013751375
1791.76903	0.013753897
1789.84032	0.01373878
1787.91161	0.01372872
1785.98291	0.013548151
1784.0542	0.013550632
1782.12549	0.013550632
1780.19678	0.013548151
1778.26808	0.013548151
1776.33937	0.013553114
1774.41066	0.013570512
1772.48196	0.013582966
1770.55325	0.013580473
1768.62454	0.013382218
1766.69583	0.013369963
1764.76713	0.013365068
1762.83842	0.013372413
1760.90971	0.013379765
1758.981	0.013382218
1757.0523	0.013208586
1755.12359	0.01322314
1753.19488	0.013252347
1751.26618	0.013286584
1749.33747	0.013306228
1747.40876	0.013313609
1745.48005	0.01332593
1743.55135	0.013343217
1741.62264	0.013177431
1739.69393	0.013189671
1737.76523	0.013201934
1735.83652	0.013226528
1733.90781	0.013236391
1731.9791	0.01321176
1730.0504	0.013174986
1728.12169	0.013148148
1726.19298	0.013126271
1724.26427	0.013293944
1722.33557	0.013279233
1720.40686	0.013279233
1718.47815	0.013097215
1716.54945	0.013080324
1714.62074	0.013039486
1712.69203	0.012998902
1710.76332	0.012970406
1708.83462	0.012771392
1706.90591	0.012762078
1704.9772	0.012932605
1703.04849	0.012930249
1701.11979	0.012752778
1699.19108	0.012734219
1697.26237	0.012701869
1695.33367	0.012669683
1693.40496	0.012633099
1691.47625	0.012608069
1689.54754	0.01260126
1687.61884	0.012785882
1685.69013	0.012802019
1683.76142	0.012802019
1681.83272	0.012778978
1679.90401	0.012753727
1677.9753	0.012571839
1676.04659	0.012576356
1674.11789	0.012574097
1672.18918	0.012569582
1670.26047	0.012571839
1668.33176	0.012558306
1666.40306	0.012538062
1664.47435	0.012356734
1662.54564	0.012356734
1660.61694	0.012347888
1658.68823	0.01234347
1656.75952	0.012363376
1654.83081	0.012405609
1652.90211	0.012419006
1650.9734	0.012394467
1649.04469	0.012378902
1647.11598	0.012381123
1645.18728	0.012365591
1643.25857	0.01234347
1641.32986	0.012334644
1639.40116	0.012341263
1637.47245	0.012361161
1635.54374	0.012365591
1633.61503	0.012166756
1631.68633	0.012145026
1629.75762	0.012142857
1627.82891	0.012147195
1625.90021	0.012151537
1623.9715	0.01233244
1622.04279	0.012328033
1620.11408	0.012145026
1618.18538	0.011970699
1616.25667	0.01196856
1614.32796	0.011953613
1612.39925	0.011940831
1610.47055	0.012119052
1608.54184	0.012119052
1606.61313	0.011936576
1604.68443	0.011932324
1602.75572	0.011928075
1600.82701	0.01192383
1598.8983	0.011917467
1596.9696	0.011913229
1595.04089	0.011906878
1593.11218	0.011898419
1591.18347	0.012063154
1589.25477	0.012050328
1587.32606	0.01203966
1585.39735	0.011852114
1583.46865	0.01184164
1581.53994	0.011833274
1579.61123	0.011831185
1577.68252	0.011835365
1575.75382	0.011827008
1573.82511	0.011808248
1571.8964	0.011797852
1569.96769	0.011797852
1568.03899	0.011783327
1566.11028	0.011942396
1564.18157	0.011936107
1562.25287	0.011772975
1560.32416	0.011627907
1558.39545	0.011632006
1556.46674	0.011777114
1554.53804	0.011742026
1552.60933	0.011723535
1550.68062	0.011888112
1548.75192	0.011711239
1546.82321	0.011715335
1544.8945	0.011558669
1542.96579	0.011578947
1541.03709	0.011760576
1539.10838	0.011564745
1537.17967	0.011530398
1535.25096	0.011516315
1533.32226	0.01151029
1531.39355	0.011498258
1529.46484	0.011490251
1527.53614	0.011496255
1525.60743	0.011504271
1523.67872	0.011518325
1521.75001	0.011532413
1519.82131	0.011526371
1517.8926	0.011514306
1515.96389	0.011504271
1514.03518	0.011498258
1512.10648	0.011502266
1510.17777	0.011516315
1508.24906	0.01135768
1506.32036	0.011349747
1504.39165	0.011316156
1502.46294	0.011292564
1500.53423	0.011296489
1498.60553	0.011308281
1496.67682	0.011310249
1494.74811	0.011300417
1492.81941	0.011300417
1490.8907	0.011140122
1488.96199	0.011144001
1487.03328	0.011132371
1485.10458	0.011118833
1483.17587	0.01111497
1481.24716	0.011116901
1479.31845	0.011126565
1477.38975	0.011144001
1475.46104	0.011169284
1473.53233	0.011015912
1471.60363	0.011021693
1469.67492	0.011019766
1467.74621	0.011027481
1465.8175	0.011041009
1463.8888	0.011044881
1461.96009	0.011046817
1460.03138	0.011068166
1458.10267	0.010919338
1456.17397	0.010917415
1454.24526	0.010890567
1452.31655	0.010869565
1450.38785	0.010865755
1448.45914	0.011039075
1446.53043	0.011031343
1444.60172	0.011021693
1442.67302	0.011013986
1440.74431	0.011017838
1438.8156	0.011033275
1436.8869	0.010871471
1434.95819	0.010863851
1433.02948	0.010852442
1431.10077	0.010852442
1429.17207	0.010677402
1427.24336	0.010677402
1425.31465	0.010858144
1423.38594	0.010869565
1421.45724	0.010888655
1419.52853	0.010731879
1417.59982	0.010909731
1415.67112	0.010726218
1413.74241	0.010728104
1411.8137	0.010559662
1409.88499	0.010568962
1407.95629	0.010578279
1406.02758	0.010587612
1404.09887	0.010595091
1402.17016	0.01060258
1400.24146	0.010611956
1398.31275	0.01061759
1396.38404	0.01079455
1394.45534	0.010786914
1392.52663	0.010773578
1390.59792	0.010767873
1388.66921	0.010596962
1386.74051	0.010598834
1384.8118	0.01059322
1382.88309	0.010587612
1380.95439	0.010583877
1379.02568	0.010582011
1377.09697	0.010583877
1375.16826	0.010587612
1373.23956	0.010585745
1371.31085	0.010405644
1369.38214	0.010401975
1367.45343	0.010576415
1365.52473	0.010578279
1363.59602	0.010403809
1361.66731	0.010398308
1359.73861	0.010389153
1357.8099	0.010378188
1355.88119	0.010372714
1353.95248	0.010544815
1352.02378	0.010539259
1350.09507	0.010356328
1348.16636	0.010350877
1346.23765	0.010345432
1344.30895	0.010339993
1342.38024	0.010338181
1340.45153	0.010338181
1338.52283	0.010334559
1336.59412	0.010325516
1334.66541	0.01013986
1332.7367	0.010131004
1330.808	0.010125698
1328.87929	0.010294887
1326.95058	0.010291296
1325.02188	0.010291296
1323.09317	0.010116867
1321.16446	0.010118632
1319.23575	0.010122164
1317.30705	0.010123931
1315.37834	0.010127466
1313.44963	0.010131004
1311.52092	0.010132774
1309.59222	0.009959811
1307.66351	0.009961552
1305.7348	0.009966777
1303.8061	0.009972008
1301.87739	0.009977245
1299.94868	0.009984235
1298.01997	0.009991236
1296.09127	0.009998246
1294.16256	0.010005266
1292.23385	0.010014055
1290.30514	0.010024622
1288.37644	0.010033445
1286.44773	0.010044053
1284.51902	0.009878285
1282.59032	0.009890498
1280.66161	0.009904492
1278.7329	0.009918526
1276.80419	0.010113556
1274.87549	0.010133333
1272.94678	0.009978617
1271.01807	0.009830206
1269.08937	0.009689575
1267.16066	0.009734992
1265.23195	0.009601449
1263.30324	0.009638116
1261.37454	0.009652158
1259.44583	0.009645132
1257.51712	0.009803922
1255.58841	0.009779066
1253.65971	0.009761388
1251.731	0.009754335
1249.80229	0.009754335
1247.87359	0.009761388
1245.94488	0.009591024
1244.01617	0.009784381
1242.08746	0.009796807
1240.15876	0.009625863
1238.23005	0.009639869
1236.30134	0.009653916
1234.37263	0.009669768
1232.44393	0.009683903
1230.51522	0.009516837
1228.58651	0.009532539
1226.65781	0.009548292
1224.7291	0.009564098
1222.80039	0.009395726
1220.87168	0.009413068
1218.94298	0.009430473
1217.01427	0.009446194
1215.08556	0.009465479
1213.15686	0.009483079
1211.22815	0.009504286
1209.29944	0.00952381
1207.37073	0.009358039
1205.44203	0.009379103
1203.51332	0.009400263
1201.58461	0.009421519
1199.6559	0.009442871
1197.7272	0.00946432
1195.79849	0.009296149
1193.86978	0.009317361
1191.94108	0.00933867
1190.01237	0.009358289
1188.08366	0.009381581
1186.15495	0.009406796
1184.22625	0.009433962
1182.29754	0.009271779
1180.36883	0.009298721
1178.44012	0.00931677
1176.51142	0.009333074
1174.58271	0.009349435
1172.654	0.00936951
1170.7253	0.009195852
1168.79659	0.009217494
1166.86788	0.009241054
1164.93917	0.009067613
1163.01047	0.009089113
1161.08176	0.00911252
1159.15305	0.009134234
1157.22435	0.009157874
1155.29564	0.00918347
1153.36693	0.009211053
1151.43822	0.009037959
1149.50952	0.009067097
1147.58081	0.009098261
1145.6521	0.009129641
1143.72339	0.008955831
1141.79469	0.008985093
1139.86598	0.009009009
1137.93727	0.009036763
1136.00857	0.008858673
1134.07986	0.008889808
1132.15115	0.008921162
1130.22244	0.008954602
1128.29374	0.008992054
1126.36503	0.009029819
1124.43632	0.008860759
1122.50761	0.008690123
1120.57891	0.008732694
1118.6502	0.008777564
1116.72149	0.009038089
1114.79279	0.009086975
1112.86408	0.00891886
1110.93537	0.008752735
1109.00666	0.008804755
1107.07796	0.00886132
1105.14925	0.008691776
1103.22054	0.008744395
1101.29184	0.008793687
1099.36313	0.008837525
1097.43442	0.00887372
1095.50571	0.008675799
1093.57701	0.008472636
1091.6483	0.008497933
1089.71959	0.008523382
1087.79088	0.008782066
1085.86218	0.008816705
1083.93347	0.00862069
1082.00476	0.008659022
1080.07606	0.008695652
1078.14735	0.008730533
1076.21864	0.008763619
1074.28993	0.008792776
1072.36123	0.008577555
1070.43252	0.008598042
1068.50381	0.00837922
1066.5751	0.008401344
1064.6464	0.008423586
1062.71769	0.008447985
1060.78898	0.008470474
1058.86028	0.008488964
1056.93157	0.008499271
1055.00286	0.008507535
1053.07415	0.008511673
1051.14545	0.008515815
1049.21674	0.008522036
1047.28803	0.008528265
1045.35933	0.008534504
1043.43062	0.00829673
1041.50191	0.008302808
1039.5732	0.008310926
1037.6445	0.008317025
1035.71579	0.008080313
1033.78708	0.008086253
1031.85837	0.00833742
1029.92967	0.008343558
1028.00096	0.008345606
1026.07225	0.008343558
1024.14355	0.00833742
1022.21484	0.008084272
1020.28613	0.008076358
1018.35742	0.00806846
1016.42872	0.008302808
1014.50001	0.008290661
1012.5713	0.008276534
1010.64259	0.008260447
1008.71389	0.008
1006.78518	0.007984515
1004.85647	0.007974867
1002.92777	0.007967166
1000.99906	0.00796332
999.07035	0.007961399
997.14164	0.008202654
995.21294	0.008204633
993.28423	0.008210577
991.35552	0.008218516
989.42682	0.007986447
987.49811	0.007757576
985.5694	0.007774538
983.64069	0.007795371
981.71199	0.007820137
979.78328	0.007848909
977.85457	0.007883715
975.92586	0.007918832
973.99716	0.007954263
972.06845	0.007986024
970.13974	0.007761642
968.21104	0.007785033
966.28233	0.007804632
964.35362	0.007824331
962.42491	0.00784413
960.49621	0.008119767
958.5675	0.008142494
956.63879	0.008169517
954.71008	0.007942608
952.78138	0.007975302
950.85267	0.007751938
948.92396	0.007790184
946.99526	0.007834944
945.06655	0.007886435
943.13784	0.007678051
941.20913	0.00773746
939.28043	0.007801991
937.35172	0.007871878
935.42301	0.007947383
933.49431	0.007747648
931.5656	0.007823414
929.63689	0.007893995
927.70818	0.007679181
925.77948	0.007743046
923.85077	0.007805724
921.92206	0.007869426
919.99335	0.007642563
918.06465	0.007413998
916.13594	0.007480551
914.20723	0.00755287
912.27853	0.007628929
910.34982	0.007711289
908.42111	0.007800312
906.4924	0.007896399
904.5637	0.007675088
902.63499	0.007119741
900.70628	0.007201309
898.77757	0.006944444
896.84887	0.007011686
894.92016	0.007080243
892.99145	0.007495741
891.06275	0.007575758
889.13404	0.007657501
887.20533	0.007391763
885.27662	0.00747331
883.34792	0.007556675
881.41921	0.007644703
879.4905	0.007729113
877.5618	0.0078125
875.63309	0.007513148
873.70438	0.007581501
871.77567	0.007642339
869.84697	0.007701194
867.91826	0.007370054
865.98955	0.007033998
864.06084	0.007086614
862.13214	0.007140024
860.20343	0.007590891
858.27472	0.007243461
856.34602	0.007698541
854.41731	0.007751938
852.4886	0.007806081
850.55989	0.007854485
848.63119	0.007484407
846.70248	0.007525084
844.77377	0.007569386
842.84506	0.007607777
840.91636	0.007646559
838.98765	0.007689022
837.05894	0.00729927
835.13024	0.007337074
833.20153	0.007372073
831.27282	0.006968641
829.34411	0.006996065
827.41541	0.007029877
825.4867	0.007505519
823.55799	0.007545495
821.62929	0.008028546
819.70058	0.008064516
817.77187	0.008097166
815.84316	0.008133755
813.91446	0.00771675
811.98575	0.007755474
810.05704	0.007336084
808.12833	0.007373272
806.19963	0.00787037
804.27092	0.007899628
802.34221	0.007925408
800.41351	0.007940215
798.4848	0.007947639
796.55609	0.008415147
794.62738	0.008411215
792.69868	0.008403361
790.76997	0.008395522
788.84126	0.007918025
786.91255	0.007914339
784.98385	0.007906977
783.05514	0.007438401
781.12643	0.007438401
779.19773	0.007899628
777.26902	0.007892293
775.34031	0.008352668
773.4116	0.008341057
771.4829	0.008325624
769.55419	0.007852194
767.62548	0.007841328
765.69678	0.007834101
763.76807	0.007826888
761.83936	0.007819687
759.91065	0.008279669
757.98195	0.00873965
756.05324	0.008283479
754.12453	0.00829111
752.19582	0.008306414
750.26712	0.008780037
748.33841	0.008796296
746.4097	0.008816705
744.481	0.008375989
742.55229	0.00839944
740.62358	0.007955077
738.69487	0.007977475
736.76617	0.008003766
734.83746	0.008502598
732.90875	0.008060692
730.98004	0.008091385
729.05134	0.008600096
727.12263	0.008637236
725.19392	0.008683068
723.26522	0.008725158
721.33651	0.008280565
719.4078	0.007835455
717.47909	0.007877893
715.55039	0.007425743
713.62168	0.007466401
711.69297	0.007511267
709.76427	0.007560484
707.83556	0.00761035
705.90685	0.008171604
703.97814	0.008226221
702.04944	0.008281573
700.12073	0.0078125
698.19202	0.008390142
696.26331	0.008452192
694.33461	0.008515168
692.4059	0.008042895
690.47719	0.007567568
688.54849	0.007629428
686.61978	0.007696537
684.69107	0.007773459
682.76236	0.007847534
680.83366	0.008484163
678.90495	0.007990868
676.97624	0.008064516
675.04753	0.00814427
673.11883	0.008225617
671.19012	0.008902077
669.26141	0.008393285
667.33271	0.008479709
665.404	0.008562691
663.47529	0.008652658
661.54658	0.008744535
659.61788	0.008832808
657.68917	0.008928571
655.76046	0.008381689
653.83176	0.00781759
651.90305	0.007899934
649.97434	0.008655126
648.04563	0.008080808
646.11693	0.007488087
644.18822	0.007554945
642.25951	0.007623008
640.3308	0.007692308
638.4021	0.008474576
636.47339	0.00856531
634.54468	0.007930786
632.61598	0.007293946
630.68727	0.008118081
628.75856	0.008227375
626.82985	0.007581501
624.90115	0.008448541
622.97244	0.008560311
621.04373	0.008668243
619.11502	0.008778931
617.18632	0.008892482
615.25761	0.008994276
613.3289	0.008250825
611.4002	0.008312552
609.47149	0.008375209
607.54278	0.007601351
605.61407	0.007666099
603.68537	0.006866953
601.75666	0.006932409
