4999.20917	0.491764706
4997.28046	0.489461358
4995.35176	0.490654206
4993.42305	0.48951049
4991.49434	0.490697674
4989.56564	0.489559165
4987.63693	0.488425926
4985.70822	0.488425926
4983.77951	0.48960739
4981.85081	0.49078341
4979.9221	0.489655172
4977.99339	0.490825688
4976.06468	0.489702517
4974.13598	0.49086758
4972.20727	0.489749431
4970.27856	0.492027335
4968.34986	0.490909091
4966.42115	0.492063492
4964.49244	0.49321267
4962.56373	0.492099323
4960.63503	0.493243243
4958.70632	0.492134831
4956.77761	0.493273543
4954.8489	0.492170022
4952.9202	0.491071429
4950.99149	0.489977728
4949.06278	0.491111111
4947.13408	0.490022173
4945.20537	0.491150442
4943.27666	0.490066225
4941.34795	0.491189427
4939.41925	0.49010989
4937.49054	0.49122807
4935.56183	0.490153173
4933.63313	0.491266376
4931.70442	0.490196078
4929.77571	0.491304348
4927.847	0.492407809
4925.9183	0.491341991
4923.98959	0.490280778
4922.06088	0.49137931
4920.13217	0.492473118
4918.20347	0.491416309
4916.27476	0.492505353
4914.34605	0.491452991
4912.41735	0.492537313
4910.48864	0.491489362
4908.55993	0.492569002
4906.63122	0.491525424
4904.70252	0.492600423
4902.77381	0.493670886
4900.8451	0.492631579
4898.91639	0.491596639
4896.98769	0.492662474
4895.05898	0.491631799
4893.13027	0.492693111
4891.20157	0.49375
4889.27286	0.492723493
4887.34415	0.491701245
4885.41544	0.492753623
4883.48674	0.492783505
4881.55803	0.491769547
4879.62932	0.49382716
4877.70062	0.491803279
4875.77191	0.492842536
4873.8432	0.491836735
4871.91449	0.49287169
4869.98579	0.491869919
4868.05708	0.492900609
4866.12837	0.490909091
4864.19966	0.492929293
4862.27096	0.493951613
4860.34225	0.494969819
4858.41354	0.493975904
4856.48484	0.492985972
4854.55613	0.492
4852.62742	0.493013972
4850.69871	0.49304175
4848.77001	0.492063492
4846.8413	0.493069307
4844.91259	0.492094862
4842.98388	0.494071146
4841.05518	0.495069034
4839.12647	0.495088409
4837.19776	0.494117647
4835.26906	0.493150685
4833.34035	0.494140625
4831.41164	0.493177388
4829.48293	0.494163424
4827.55423	0.493203883
4825.62552	0.493230174
4823.69681	0.494208494
4821.76811	0.493256262
4819.8394	0.494230769
4817.91069	0.49328215
4815.98198	0.494252874
4814.05328	0.494274809
4812.12457	0.493333333
4810.19586	0.494296578
4808.26715	0.495256167
4806.33845	0.494318182
4804.40974	0.493383743
4802.48103	0.494339623
4800.55233	0.493408663
4798.62362	0.493433396
4796.69491	0.494382022
4794.7662	0.495327103
4792.8375	0.494402985
4790.90879	0.495344507
4788.98008	0.495361781
4787.05137	0.494444444
4785.12267	0.495378928
4783.19396	0.494464945
4781.26525	0.493554328
4779.33655	0.493577982
4777.40784	0.494505495
4775.47913	0.495429616
4773.55042	0.494525547
4771.62172	0.495446266
4769.69301	0.494545455
4767.7643	0.495462795
4765.8356	0.494565217
4763.90689	0.494584838
4761.97818	0.495495495
4760.04947	0.496402878
4758.12077	0.49551167
4756.19206	0.496415771
4754.26335	0.495527728
4752.33464	0.495543672
4750.40594	0.496441281
4748.47723	0.494680851
4746.54852	0.49380531
4744.61982	0.494699647
4742.69111	0.495590829
4740.7624	0.496478873
4738.83369	0.495606327
4736.90499	0.496491228
4734.97628	0.496503497
4733.04757	0.495636998
4731.11886	0.495652174
4729.19016	0.494791667
4727.26145	0.495667244
4725.33274	0.494809689
4723.40404	0.495682211
4721.47533	0.496551724
4719.54662	0.494845361
4717.61791	0.495711835
4715.68921	0.494863014
4713.7605	0.494880546
4711.83179	0.495741056
4709.90308	0.496598639
4707.97438	0.495755518
4706.04567	0.496610169
4704.11696	0.497461929
4702.18826	0.495784148
4700.25955	0.496632997
4698.33084	0.494966443
4696.40213	0.495812395
4694.47343	0.496655518
4692.54472	0.496666667
4690.61601	0.495840266
4688.68731	0.496677741
4686.7586	0.495854063
4684.82989	0.495867769
4682.90118	0.495049505
4680.97248	0.495881384
4679.04377	0.49589491
4677.11506	0.496721311
4675.18635	0.497545008
4673.25765	0.496732026
4671.32894	0.497553018
4669.40023	0.495934959
4667.47153	0.496753247
4665.54282	0.496763754
4663.61411	0.495961228
4661.6854	0.496774194
4659.7567	0.495974235
4657.82799	0.496784566
4655.89928	0.496794872
4653.97057	0.496
4652.04187	0.496012759
4650.11316	0.496815287
4648.18445	0.497615262
4646.25575	0.496038035
4644.32704	0.496050553
4642.39833	0.496845426
4640.46962	0.497637795
4638.54092	0.496855346
4636.61221	0.496865204
4634.6835	0.497652582
4632.7548	0.496875
4630.82609	0.496884735
4628.89738	0.497667185
4626.96867	0.496124031
4625.03997	0.496904025
4623.11126	0.49691358
4621.18255	0.497688752
4619.25384	0.496923077
4617.32514	0.497695853
4615.39643	0.49770291
4613.46772	0.497709924
4611.53902	0.49695122
4609.61031	0.497716895
4607.6816	0.496960486
4605.75289	0.496969697
4603.82419	0.497730711
4601.89548	0.497737557
4599.96677	0.496987952
4598.03806	0.497744361
4596.10936	0.497751124
4594.18065	0.498502994
4592.25194	0.497014925
4590.32324	0.497764531
4588.39453	0.49702381
4586.46582	0.497032641
4584.53711	0.497777778
4582.60841	0.497784343
4580.6797	0.498525074
4578.75099	0.497790869
4576.82229	0.497797357
4574.89358	0.498533724
4572.96487	0.498538012
4571.03616	0.497810219
4569.10746	0.497816594
4567.17875	0.498546512
4565.25004	0.498550725
4563.32133	0.497829233
4561.39263	0.498554913
4559.46392	0.498559078
4557.53521	0.497841727
4555.60651	0.49784792
4553.6778	0.498567335
4551.74909	0.497142857
4549.82038	0.4978602
4547.89168	0.498575499
4545.96297	0.498579545
4544.03426	0.49787234
4542.10555	0.497878359
4540.17685	0.498587571
4538.24814	0.498591549
4536.31943	0.499296765
4534.39073	0.497896213
4532.46202	0.49859944
4530.53331	0.499300699
4528.6046	0.49930265
4526.6759	0.498607242
4524.74719	0.498611111
4522.81848	0.499306519
4520.88978	0.499308437
4518.96107	0.499310345
4517.03236	0.5
4515.10365	0.498626374
4513.17495	0.499314129
4511.24624	0.499316005
4509.31753	0.49863388
4507.38882	0.498637602
4505.46012	0.497959184
4503.53141	0.497964722
4501.6027	0.498644986
4499.674	0.498648649
4497.74529	0.499325236
4495.81658	0.499327052
4493.88787	0.5
4491.95917	0.498659517
4490.03046	0.499330656
4488.10175	0.49799733
4486.17304	0.498666667
4484.24434	0.498670213
4482.31563	0.499335989
4480.38692	0.499337748
4478.45822	0.499339498
4476.52951	0.5
4474.6008	0.5
4472.67209	0.50065703
4470.74339	0.499344692
4468.81468	0.499346405
4466.88597	0.5
4464.95727	0.498697917
4463.02856	0.499349805
4461.09985	0.499351492
4459.17114	0.5
4457.24244	0.5
4455.31373	0.499354839
4453.38502	0.499356499
4451.45631	0.5
4449.52761	0.498717949
4447.5989	0.498721228
4445.67019	0.49936143
4443.74149	0.499363057
4441.81278	0.5
4439.88407	0.5
4437.95536	0.500633714
4436.02666	0.500632111
4434.09795	0.499369483
4432.16924	0.5
4430.24053	0.5
4428.31183	0.5
4426.38312	0.500625782
4424.45441	0.49937578
4422.52571	0.5
4420.597	0.5
4418.66829	0.500621118
4416.73958	0.499380421
4414.81088	0.499381953
4412.88217	0.499383477
4410.95346	0.499384994
4409.02476	0.5
4407.09605	0.5
4405.16734	0.500611995
4403.23863	0.500610501
4401.30993	0.501219512
4399.38122	0.501216545
4397.45251	0.501213592
4395.5238	0.501818182
4393.5951	0.500604595
4391.66639	0.501207729
4389.73768	0.501204819
4387.80898	0.5
4385.88027	0.50060024
4383.95156	0.500598802
4382.02285	0.500597372
4380.09415	0.501193317
4378.16544	0.501190476
4376.23673	0.50059453
4374.30802	0.50059312
4372.37932	0.501775148
4370.45061	0.501770956
4368.5219	0.500588928
4366.5932	0.501176471
4364.66449	0.5
4362.73578	0.5
4360.80707	0.5
4358.87837	0.5
4356.94966	0.5
4355.02095	0.50058072
4353.09225	0.500579374
4351.16354	0.500578035
4349.23483	0.501154734
4347.30612	0.5
4345.37742	0.500575374
4343.44871	0.500574053
4341.52	0.500572738
4339.59129	0.500571429
4337.66259	0.500570125
4335.73388	0.501138952
4333.80517	0.501136364
4331.87647	0.501133787
4329.94776	0.501131222
4328.01905	0.501694915
4326.09034	0.501691094
4324.16164	0.501687289
4322.23293	0.501683502
4320.30422	0.502242152
4318.37551	0.502237136
4316.44681	0.502232143
4314.5181	0.501113586
4312.58939	0.501111111
4310.66069	0.501108647
4308.73198	0.50166113
4306.80327	0.501657459
4304.87456	0.501653804
4302.94586	0.501650165
4301.01715	0.502197802
4299.08844	0.502192982
4297.15974	0.502188184
4295.23103	0.502183406
4293.30232	0.502178649
4291.37361	0.502173913
4289.44491	0.502714441
4287.5162	0.501625135
4285.58749	0.501621622
4283.65878	0.501618123
4281.73008	0.502155172
4279.80137	0.502150538
4277.87266	0.502145923
4275.94396	0.502141328
4274.01525	0.502136752
4272.08654	0.502132196
4270.15783	0.50212766
4268.22913	0.502656748
4266.30042	0.502651113
4264.37171	0.502645503
4262.443	0.502639916
4260.5143	0.501580611
4258.58559	0.502628812
4256.65688	0.502623295
4254.72818	0.502617801
4252.79947	0.50261233
4250.87076	0.502087683
4248.94205	0.502083333
4247.01335	0.502601457
4245.08464	0.502596054
4243.15593	0.502590674
4241.22723	0.502585315
4239.29852	0.502061856
4237.36981	0.502057613
4235.4411	0.502569373
4233.5124	0.502564103
4231.58369	0.502558854
4229.65498	0.502553626
4227.72627	0.50254842
4225.79757	0.502543235
4223.86886	0.502538071
4221.94015	0.502532928
4220.01145	0.503036437
4218.08274	0.503030303
4216.15403	0.503024194
4214.22532	0.503018109
4212.29662	0.503012048
4210.36791	0.503006012
4208.4392	0.503503504
4206.51049	0.502994012
4204.58179	0.502988048
4202.65308	0.502982107
4200.72437	0.50297619
4198.79567	0.502970297
4196.86696	0.502964427
4194.93825	0.50295858
4193.00954	0.502952756
4191.08084	0.503441495
4189.15213	0.50343474
4187.22342	0.503428012
4185.29472	0.50342131
4183.36601	0.504390244
4181.4373	0.504873294
4179.50859	0.503401361
4177.57989	0.503394762
4175.65118	0.50338819
4173.72247	0.503381643
4171.79376	0.503375121
4169.86506	0.503368624
4167.93635	0.503362152
4166.00764	0.502873563
4164.07894	0.502868069
4162.15023	0.504297994
4160.22152	0.5042898
4158.29281	0.504281637
4156.36411	0.504273504
4154.4354	0.503317536
4152.50669	0.503311258
4150.57798	0.503305005
4148.64928	0.504241282
4146.72057	0.504233302
4144.79186	0.503752345
4142.86316	0.502808989
4140.93445	0.502803738
4139.00574	0.503731343
4137.07703	0.503724395
4135.14833	0.503717472
4133.21962	0.503710575
4131.29091	0.503703704
4129.36221	0.504162812
4127.4335	0.504155125
4125.50479	0.504147465
4123.57608	0.503676471
4121.64738	0.503669725
4119.71867	0.503663004
4117.78996	0.503656307
4115.86125	0.503649635
4113.93255	0.503642987
4112.00384	0.503636364
4110.07513	0.503629764
4108.14643	0.503167421
4106.21772	0.503161698
4104.28901	0.50405771
4102.3603	0.504050405
4100.4316	0.504043127
4098.50289	0.504035874
4096.57418	0.504028648
4094.64547	0.504021448
4092.71677	0.504014273
4090.78806	0.504007124
4088.85935	0.504
4086.93065	0.503546099
4085.00194	0.503539823
4083.07323	0.503533569
4081.14452	0.503527337
4079.21582	0.503521127
4077.28711	0.504393673
4075.3584	0.504385965
4073.4297	0.504378284
4071.50099	0.504370629
4069.57228	0.505235602
4067.64357	0.504786771
4065.71487	0.503909644
4063.78616	0.503902862
4061.85745	0.503896104
4059.92874	0.503454231
4058.00004	0.504310345
4056.07133	0.504302926
4054.14262	0.503862661
4052.21392	0.504288165
4050.28521	0.504280822
4048.3565	0.505128205
4046.42779	0.505119454
4044.49909	0.504680851
4042.57038	0.504672897
4040.64167	0.50466497
4038.71296	0.50465707
4036.78426	0.504222973
4034.85555	0.504215852
4032.92684	0.504208754
4030.99814	0.504201681
4029.06943	0.504610226
4027.14072	0.50460251
4025.21201	0.50459482
4023.28331	0.504587156
4021.3546	0.504159734
4019.42589	0.504152824
4017.49719	0.504145937
4015.56848	0.504139073
4013.63977	0.504958678
4011.71106	0.504534213
4009.78236	0.504526749
4007.85365	0.50451931
4005.92494	0.504098361
4003.99623	0.504909984
4002.06753	0.504901961
4000.13882	0.504482478
3998.21011	0.504475183
3996.28141	0.504467912
3994.3527	0.505271695
3992.42399	0.505263158
3990.49528	0.505254648
3988.56658	0.505246166
3986.63787	0.504830918
3984.70916	0.504823151
3982.78045	0.50521251
3980.85175	0.505204163
3978.92304	0.505195843
3976.99433	0.50518755
3975.06563	0.505179283
3973.13692	0.504769475
3971.20821	0.505555556
3969.2795	0.505146477
3967.3508	0.50513834
3965.42209	0.505130229
3963.49338	0.505122143
3961.56468	0.505503145
3959.63597	0.505494505
3957.70726	0.505485893
3955.77855	0.505863956
3953.84985	0.505854801
3951.92114	0.505845674
3949.99243	0.505058366
3948.06372	0.505827506
3946.13502	0.505426357
3944.20631	0.505417957
3942.2776	0.505019305
3940.3489	0.504622496
3938.42019	0.504996157
3936.49148	0.504988488
3934.56277	0.504601227
3932.63407	0.505359877
3930.70536	0.504965623
3928.77665	0.505720824
3926.84794	0.50456621
3924.91924	0.504559271
3922.99053	0.505311077
3921.06182	0.50530303
3919.13312	0.505295008
3917.20441	0.505287009
3915.2757	0.505271084
3913.34699	0.505255255
3911.41829	0.504868914
3909.48958	0.505609574
3907.56087	0.505609574
3905.63217	0.505988024
3903.70346	0.505609574
3901.77475	0.505601195
3899.84604	0.505584512
3897.91734	0.505192878
3895.98863	0.50591716
3894.05992	0.505908419
3892.13121	0.505899705
3890.20251	0.505891016
3888.2738	0.505882353
3886.34509	0.505510654
3884.41639	0.505865103
3882.48768	0.505486467
3880.55897	0.505109489
3878.63026	0.505094614
3876.70156	0.505446623
3874.77285	0.505805515
3872.84414	0.505805515
3870.91543	0.505438724
3868.98673	0.505788712
3867.05802	0.505772006
3865.12931	0.505399568
3863.20061	0.505747126
3861.2719	0.505730659
3859.34319	0.505360972
3857.41448	0.505007153
3855.48578	0.505021521
3853.55707	0.504659498
3851.62836	0.505345688
3849.69966	0.505315379
3847.77095	0.505649718
3845.84224	0.505998589
3843.91353	0.505641749
3841.98483	0.505990134
3840.05612	0.505633803
3838.12741	0.505625879
3836.1987	0.505610098
3834.27	0.505594406
3832.34129	0.505931612
3830.41258	0.505915101
3828.48388	0.50625
3826.55517	0.505890506
3824.62646	0.506583507
3822.69775	0.506583507
3820.76905	0.506574394
3818.84034	0.505866115
3816.91163	0.506198347
3814.98292	0.505833905
3813.05422	0.506155951
3811.12551	0.505802048
3809.1968	0.506484642
3807.2681	0.506475801
3805.33939	0.506466984
3803.41068	0.506122449
3801.48197	0.50611413
3799.55327	0.506775068
3797.62456	0.506756757
3795.69585	0.506738544
3793.76715	0.50672043
3791.83844	0.506032172
3789.90973	0.506354515
3787.98102	0.506346025
3786.05232	0.506337558
3784.12361	0.505992011
3782.1949	0.506648936
3780.26619	0.506976744
3778.33749	0.50695825
3776.40878	0.506939855
3774.48007	0.507255937
3772.55137	0.506921556
3770.62266	0.506587615
3768.69395	0.506245891
3766.76524	0.505905512
3764.83654	0.506221349
3762.90783	0.506535948
3760.97912	0.506527415
3759.05041	0.506518905
3757.12171	0.506180872
3755.193	0.506501951
3753.26429	0.506510417
3751.33559	0.506510417
3749.40688	0.506822612
3747.47817	0.506485084
3745.54946	0.506485084
3743.62076	0.50678733
3741.69205	0.506752412
3739.76334	0.506735087
3737.83464	0.506418485
3735.90593	0.506735087
3733.97722	0.50671785
3732.04851	0.506692161
3730.11981	0.506666667
3728.1911	0.506337136
3726.26239	0.506329114
3724.33368	0.506632975
3722.40498	0.506935687
3720.47627	0.506918239
3718.54756	0.506900878
3716.61886	0.506892231
3714.69015	0.506892231
3712.76144	0.506892231
3710.83273	0.506566604
3708.90403	0.506542056
3706.97532	0.506832298
3705.04661	0.507444169
3703.1179	0.506815366
3701.1892	0.507425743
3699.26049	0.507094386
3697.33178	0.506773399
3695.40308	0.506765068
3693.47437	0.506765068
3691.54566	0.506765068
3689.61695	0.507068224
3687.68825	0.506740196
3685.75954	0.506715507
3683.83083	0.506390749
3681.90213	0.506382979
3679.97342	0.506382979
3678.04471	0.506690998
3676.116	0.506999391
3674.1873	0.507290401
3672.25859	0.507272727
3670.32988	0.506957048
3668.40117	0.507237636
3666.47247	0.506906907
3664.54376	0.506890354
3662.61505	0.506882107
3660.68635	0.506873879
3658.75764	0.506873879
3656.82893	0.506571087
3654.90022	0.506261181
3652.97152	0.506857484
3651.04281	0.506865672
3649.1141	0.506563246
3647.18539	0.506539834
3645.25669	0.507109005
3643.32798	0.506792676
3641.39927	0.506485849
3639.47057	0.50647821
3637.54186	0.506470588
3635.61315	0.506462985
3633.68444	0.506462985
3631.75574	0.50617284
3629.82703	0.506768687
3627.89832	0.506455399
3625.96961	0.506432749
3624.04091	0.507001167
3622.1122	0.507001167
3620.18349	0.506417736
3618.25479	0.506410256
3616.32608	0.506108202
3614.39737	0.506101104
3612.46866	0.506387921
3610.53996	0.506094022
3608.61125	0.506373117
3606.68254	0.506358382
3604.75384	0.506343714
3602.82513	0.506336406
3600.89642	0.506329114
3598.96771	0.506321839
3597.03901	0.506314581
3595.1103	0.506307339
3593.18159	0.506300115
3591.25288	0.506292906
3589.32418	0.506292906
3587.39547	0.506285714
3585.46676	0.50627138
3583.53806	0.50625711
3581.60935	0.506818182
3579.68064	0.506810443
3577.75193	0.506235828
3575.82323	0.506508206
3573.89452	0.506500848
3571.96581	0.506214689
3570.0371	0.506214689
3568.1084	0.505649718
3566.17969	0.505922166
3564.25098	0.506471581
3562.32228	0.506741573
3560.39357	0.506449804
3558.46486	0.506442577
3556.53615	0.506435367
3554.60745	0.506711409
3552.67874	0.506703911
3550.75003	0.506696429
3548.82133	0.50613155
3546.89262	0.506406685
3544.96391	0.506117909
3543.0352	0.506385341
3541.1065	0.506378258
3539.17779	0.506371191
3537.24908	0.506364139
3535.32037	0.506077348
3533.39167	0.50607064
3531.46296	0.506343078
3529.53425	0.506063947
3527.60555	0.506336088
3525.67684	0.506329114
3523.74813	0.506871908
3521.81942	0.506586169
3519.89072	0.506578947
3517.96201	0.506571742
3516.0333	0.506564551
3514.10459	0.506280721
3512.17589	0.506273868
3510.24718	0.50626703
3508.31847	0.506260207
3506.38977	0.506253399
3504.46106	0.506521739
3502.53235	0.506239826
3500.60364	0.506775068
3498.67494	0.506493506
3496.74623	0.506486486
3494.81752	0.506479482
3492.88882	0.506472492
3490.96011	0.506465517
3489.0314	0.506458558
3487.10269	0.506451613
3485.17399	0.50617284
3483.24528	0.50616622
3481.31657	0.506159614
3479.38786	0.506417112
3477.45916	0.506410256
3475.53045	0.506403415
3473.60174	0.506126798
3471.67304	0.506652475
3469.74433	0.506376196
3467.81562	0.506900212
3465.88691	0.506624271
3463.95821	0.506617258
3462.0295	0.506871036
3460.10079	0.506596306
3458.17208	0.506589352
3456.24338	0.506315789
3454.31467	0.50604309
3452.38596	0.506036745
3450.45726	0.506030414
3448.52855	0.506024096
3446.59984	0.505753138
3444.67113	0.506269592
3442.74243	0.505998957
3440.81372	0.50625
3438.88501	0.50650026
3436.95631	0.50674974
3435.0276	0.506480041
3433.09889	0.50621118
3431.17018	0.506459948
3429.24148	0.50619195
3427.31277	0.506439979
3425.38406	0.506687243
3423.45535	0.506420134
3421.52665	0.506153846
3419.59794	0.50640041
3417.66923	0.506387328
3415.74053	0.506632653
3413.81182	0.506367804
3411.88311	0.506361323
3409.9544	0.506097561
3408.0257	0.506091371
3406.09699	0.50633553
3404.16828	0.506072874
3402.23957	0.506316321
3400.31087	0.506559031
3398.38216	0.506801008
3396.45345	0.50678733
3394.52475	0.507028112
3392.59604	0.506513026
3390.66733	0.5065
3388.73862	0.506487026
3386.80992	0.506726457
3384.88121	0.506467662
3382.9525	0.506706408
3381.0238	0.506693109
3379.09509	0.506435644
3377.16638	0.506673258
3375.23767	0.506910168
3373.30897	0.506403941
3371.38026	0.506640433
3369.45155	0.506385069
3367.52284	0.506620893
3365.59414	0.506856024
3363.66543	0.506601467
3361.73672	0.50658858
3359.80802	0.506335283
3357.87931	0.506569343
3355.9506	0.506316812
3354.02189	0.506304559
3352.09319	0.50653753
3350.16448	0.506286267
3348.23577	0.50651859
3346.30706	0.506750241
3344.37836	0.506737247
3342.44965	0.506487266
3340.52094	0.50671785
3338.59224	0.506468615
3336.66353	0.506698565
3334.73482	0.506208214
3332.80611	0.506437768
3330.87741	0.506666667
3328.9487	0.506653992
3327.01999	0.506881822
3325.09129	0.506635071
3323.16258	0.506862281
3321.23387	0.506849315
3319.30516	0.506603774
3317.37646	0.506829958
3315.44775	0.507055503
3313.51904	0.507042254
3311.59033	0.50656045
3309.66163	0.506548176
3307.73292	0.506772536
3305.80421	0.506996269
3303.87551	0.50698324
3301.9468	0.506505576
3300.01809	0.506493506
3298.08938	0.506716072
3296.16068	0.506703652
3294.23197	0.506925208
3292.30326	0.506912442
3290.37455	0.507132996
3288.44585	0.50711989
3286.51714	0.50733945
3284.58843	0.506868132
3282.65973	0.507087334
3280.73102	0.507074395
3278.80231	0.506605923
3276.8736	0.506593906
3274.9449	0.506581934
3273.01619	0.506799637
3271.08748	0.50678733
3269.15878	0.506775068
3267.23007	0.50699143
3265.30136	0.506528591
3263.37265	0.506744604
3261.44395	0.506732496
3259.51524	0.50672043
3257.58653	0.506935123
3255.65782	0.506922733
3253.72912	0.507136485
3251.80041	0.507123776
3249.8717	0.507111111
3247.943	0.506879716
3246.01429	0.507092199
3244.08558	0.507079646
3242.15687	0.507067138
3240.22817	0.50683723
3238.29946	0.506825187
3236.37075	0.506813187
3234.44204	0.506801229
3232.51334	0.506789312
3230.58463	0.507214692
3228.65592	0.5069869
3226.72722	0.506974717
3224.79851	0.506527415
3222.8698	0.506736202
3220.94109	0.507158351
3219.01239	0.507145951
3217.08368	0.507133593
3215.15497	0.507121278
3213.22627	0.506896552
3211.29756	0.507314974
3209.36885	0.507302405
3207.44014	0.506643806
3205.51144	0.506849315
3203.58273	0.507264957
3201.65402	0.50725256
3199.72531	0.507030251
3197.79661	0.50701829
3195.8679	0.507006369
3193.93919	0.506994489
3192.01049	0.506982649
3190.08178	0.506970849
3188.15307	0.507172996
3186.22436	0.50716091
3184.29566	0.507148865
3182.36695	0.50713686
3180.43824	0.507124895
3178.50953	0.507112971
3176.58083	0.507101086
3174.65212	0.507089241
3172.72341	0.507077435
3170.79471	0.507065669
3168.866	0.507264425
3166.93729	0.507252383
3165.00858	0.507240381
3163.07988	0.507228418
3161.15117	0.507216495
3159.22246	0.507616303
3157.29376	0.507192766
3155.36505	0.50718096
3153.43634	0.507169193
3151.50763	0.507157464
3149.57893	0.507554104
3147.65022	0.507340946
3145.72151	0.50732899
3143.7928	0.507317073
3141.8641	0.507305195
3139.93539	0.50708789
3138.00668	0.507281553
3136.07798	0.50726979
3134.14927	0.507258065
3132.22056	0.507246377
3130.29185	0.507030936
3128.36315	0.507019655
3126.43444	0.507211538
3124.50573	0.5076
3122.57702	0.507587859
3120.64832	0.507177033
3118.71961	0.507361719
3116.7909	0.50735002
3114.8622	0.507735026
3112.93349	0.507722772
3111.00478	0.507315144
3109.07607	0.507303593
3107.14737	0.507092199
3105.21866	0.507081039
3103.28995	0.507662083
3101.36125	0.507650059
3099.43254	0.507638073
3097.50383	0.507427678
3095.57512	0.507416081
3093.64642	0.507404521
3091.71771	0.507782101
3089.789	0.507381507
3087.86029	0.507173323
3085.93159	0.507162214
3084.00288	0.507733952
3082.07417	0.507722008
3080.14547	0.5077101
3078.21676	0.507887649
3076.28805	0.507875528
3074.35934	0.507668712
3072.43064	0.507656968
3070.50193	0.50764526
3068.57322	0.50744559
3066.64451	0.507434236
3064.71581	0.507803578
3062.7871	0.507791714
3060.85839	0.507587253
3058.92969	0.507575758
3057.00098	0.507942511
3055.07227	0.507738769
3053.14356	0.507727101
3051.21486	0.507715469
3049.28615	0.507894737
3047.35744	0.507882883
3045.42874	0.507871064
3043.50003	0.507859281
3041.57132	0.507847534
3039.64261	0.507835821
3037.71391	0.507635009
3035.7852	0.507623652
3033.85649	0.507612328
3031.92778	0.507789318
3029.99908	0.507777778
3028.07037	0.507766272
3026.14166	0.507754801
3024.21296	0.507743363
3022.28425	0.507918969
3020.35554	0.507907319
3018.42683	0.507895703
3016.49813	0.507703595
3014.56942	0.508058608
3012.64071	0.508046818
3010.712	0.507855316
3008.7833	0.508029197
3006.85459	0.508017493
3004.92588	0.50782672
3002.99718	0.508
3001.06847	0.507809662
2999.13976	0.507619739
2997.21105	0.507976795
2995.28235	0.507971014
2993.35364	0.507965243
2991.42493	0.507959479
2989.49623	0.507775769
2987.56752	0.507953724
2985.63881	0.507953724
2983.7101	0.507953724
2981.7814	0.507953724
2979.85269	0.507959479
2977.92398	0.507965243
2975.99527	0.507976795
2974.06657	0.508172902
2972.13786	0.50782672
2970.20915	0.508029197
2968.28045	0.507866813
2966.35174	0.508064516
2964.42303	0.508070433
2962.49432	0.508064516
2960.56562	0.508046818
2958.63691	0.508388038
2956.7082	0.508357558
2954.77949	0.508143322
2952.85079	0.508113956
2950.92208	0.50790798
2948.99337	0.508067408
2947.06467	0.508231926
2945.13596	0.508044333
2943.20725	0.508038585
2941.27854	0.508038585
2939.34984	0.508038585
2937.42113	0.508220157
2935.49242	0.508220157
2933.56372	0.508038585
2931.63501	0.508214286
2929.7063	0.508027114
2927.77759	0.508015675
2925.84889	0.507823613
2923.92018	0.507981554
2921.99147	0.508312699
2920.06276	0.508110014
2918.13406	0.508081518
2916.20535	0.508231173
2914.27664	0.508030726
2912.34794	0.507831535
2910.41923	0.50815689
2908.49052	0.508139938
2906.56181	0.50829302
2904.63311	0.508275862
2902.7044	0.508083935
2900.77569	0.507892931
2898.84698	0.50804519
2896.91828	0.508028698
2894.98957	0.508012274
2893.06086	0.507995917
2891.13216	0.508152174
2889.20345	0.507968803
2887.27474	0.507786053
2885.34603	0.507947244
2883.41733	0.508108108
2881.48862	0.507931151
2879.55991	0.507925801
2877.63121	0.508091706
2875.7025	0.508086253
2873.77379	0.507909795
2871.84508	0.508064516
2869.91638	0.507883261
2867.98767	0.508037508
2866.05896	0.507856904
2864.13025	0.507846411
2862.20155	0.508005337
2860.27284	0.50799467
2858.34413	0.5078203
2856.41543	0.507973422
2854.48672	0.508126036
2852.55801	0.508109897
2850.6293	0.508088478
2848.7006	0.508229098
2846.77189	0.508040696
2844.84318	0.508180628
2842.91447	0.508159269
2840.98577	0.507977857
2839.05706	0.508122157
2837.12835	0.507941653
2835.19965	0.507926237
2833.27094	0.508074935
2831.34223	0.507900677
2829.41352	0.508370895
2827.48482	0.508196721
2825.55611	0.508344031
2823.6274	0.507850048
2821.6987	0.50784
2819.76999	0.508149569
2817.84128	0.507977026
2815.91257	0.507805033
2813.98387	0.5077951
2812.05516	0.507623888
2810.12645	0.507931472
2808.19774	0.50792142
2806.26904	0.508227848
2804.34033	0.508217446
2802.41162	0.508207071
2800.48292	0.508196721
2798.55421	0.50802644
2796.6255	0.508016347
2794.69679	0.50784683
2792.76809	0.507836991
2790.83938	0.507827176
2788.91067	0.508130081
2786.98196	0.507961286
2785.05326	0.508263174
2783.12455	0.508252881
2781.19584	0.508242613
2779.26714	0.508074534
2777.33843	0.508222153
2775.40972	0.508054523
2773.48101	0.508044554
2771.55231	0.508034611
2769.6236	0.508024691
2767.69489	0.508014797
2765.76619	0.508004926
2763.83748	0.50799508
2761.90877	0.507985258
2759.98006	0.50797546
2758.05136	0.507965686
2756.12265	0.507955936
2754.19394	0.50794621
2752.26523	0.507936508
2750.33653	0.507926829
2748.40782	0.507917174
2746.47911	0.507907543
2744.55041	0.507897934
2742.6217	0.508191748
2740.69299	0.508181818
2738.76428	0.508171913
2736.83558	0.508162031
2734.90687	0.508152174
2732.97816	0.50814234
2731.04945	0.50813253
2729.12075	0.508122744
2727.19204	0.5078125
2725.26333	0.507803121
2723.33463	0.507641594
2721.40592	0.507632445
2719.47721	0.507623318
2717.5485	0.507614213
2715.6198	0.50760513
2713.69109	0.507893953
2711.76238	0.507884558
2709.83368	0.507875186
2707.90497	0.507865836
2705.97626	0.507856508
2704.04755	0.507847202
2702.11885	0.508133688
2700.19014	0.508124077
2698.26143	0.508114488
2696.33272	0.507810197
2694.40402	0.507801001
2692.47531	0.507791826
2690.5466	0.507782673
2688.6179	0.507773541
2686.68919	0.508057427
2684.76048	0.508047995
2682.83177	0.507890123
2680.90307	0.507880911
2678.97436	0.50787172
2677.04565	0.507862551
2675.11694	0.507853403
2673.18824	0.507844277
2671.25953	0.507835171
2669.33082	0.507826087
2667.40212	0.507817024
2665.47341	0.508244142
2663.5447	0.508087811
2661.61599	0.50778996
2659.68729	0.50778098
2657.75858	0.507772021
2655.82987	0.507763082
2653.90117	0.507754164
2651.97246	0.507745267
2650.04375	0.50773639
2648.11504	0.508013738
2646.18634	0.507859388
2644.25763	0.507850414
2642.32892	0.50784146
2640.40021	0.507547707
2638.47151	0.507539118
2636.5428	0.507674815
2634.61409	0.507666099
2632.68539	0.50794101
2630.75668	0.507932011
2628.82797	0.507923033
2626.89926	0.507914076
2624.97056	0.507905138
2623.04185	0.507753031
2621.11314	0.507744297
2619.18443	0.507735584
2617.25573	0.50772689
2615.32702	0.507718215
2613.39831	0.50770956
2611.46961	0.507558791
2609.5409	0.507692308
2607.61219	0.507404303
2605.68348	0.507533482
2603.75478	0.507525084
2601.82607	0.507516704
2599.89736	0.507508343
2597.96865	0.507641011
2596.03995	0.507632528
2594.11124	0.507624064
2592.18253	0.507475083
2590.25383	0.507466814
2588.32512	0.507734807
2586.39641	0.507726269
2584.4677	0.507717751
2582.539	0.507569502
2580.61029	0.507561177
2578.68158	0.50755287
2576.75288	0.507544582
2574.82417	0.507536311
2572.89546	0.507528059
2570.96675	0.507381083
2569.03805	0.50737302
2567.10934	0.507364975
2565.18063	0.507356948
2563.25192	0.507621121
2561.32322	0.507612833
2559.39451	0.507604563
2557.4658	0.50759631
2555.5371	0.507450555
2553.60839	0.50744249
2551.67968	0.507704785
2549.75097	0.507696462
2547.82227	0.507551241
2545.89356	0.507543103
2543.96485	0.507534984
2542.03614	0.507526882
2540.10744	0.507518797
2538.17873	0.50751073
2536.25002	0.50750268
2534.32132	0.507358844
2532.39261	0.507350976
2530.4639	0.50747464
2528.53519	0.507466667
2526.60649	0.507458711
2524.67778	0.507450772
2522.74907	0.50744285
2520.82037	0.507169411
2518.89166	0.507427056
2516.96295	0.507284768
2515.03424	0.507277057
2513.10554	0.507533703
2511.17683	0.507789807
2509.24812	0.507781588
2507.31941	0.507509881
2505.39071	0.507501974
2503.462	0.507360673
2501.53329	0.507352941
2499.60459	0.507345226
2497.67588	0.507204611
2495.74717	0.50745878
2493.81846	0.50745098
2491.88976	0.507443197
2489.96105	0.507303078
2488.03234	0.507295466
2486.10363	0.507287871
2484.17493	0.507540302
2482.24622	0.507400675
2480.31751	0.507392996
2478.38881	0.507385333
2476.4601	0.507377686
2474.53139	0.507238883
2472.60268	0.507231405
2470.67398	0.507093113
2468.74527	0.507085803
2466.81656	0.507335907
2464.88786	0.507328362
2462.95915	0.507320832
2461.03044	0.507183171
2459.10173	0.507175807
2457.17303	0.507294599
2455.24432	0.507287139
2453.31561	0.507279693
2451.3869	0.507272263
2449.4582	0.507135576
2447.52949	0.50712831
2445.60078	0.507375381
2443.67208	0.507239014
2441.74337	0.506977924
2439.81466	0.506842372
2437.88595	0.506835443
2435.95725	0.507081437
2434.02854	0.50707428
2432.09983	0.506939187
2430.17112	0.50718427
2428.24242	0.507049345
2426.31371	0.507042254
2424.385	0.507035176
2422.4563	0.506900878
2420.52759	0.507144648
2418.59888	0.507010516
2416.67017	0.507003502
2414.74147	0.506996502
2412.81276	0.50686299
2410.88405	0.506856146
2408.95535	0.506849315
2407.02664	0.506842498
2405.09793	0.506709742
2403.16922	0.506703078
2401.24052	0.506570791
2399.31181	0.506811989
2397.3831	0.506805246
2395.45439	0.506920415
2393.52569	0.50691358
2391.59698	0.506906759
2389.66827	0.506899951
2387.73957	0.506768398
2385.81086	0.506761741
2383.88215	0.506876228
2381.95344	0.50686948
2380.02474	0.506862745
2378.09603	0.506731946
2376.16732	0.506725361
2374.23861	0.506718788
2372.30991	0.506712228
2370.3812	0.506705682
2368.45249	0.506699147
2366.52379	0.506692626
2364.59508	0.506562956
2362.66637	0.506556581
2360.73766	0.506669901
2358.80896	0.506540698
2356.88025	0.506776379
2354.95154	0.506647329
2353.02284	0.506760019
2351.09413	0.506753497
2349.16542	0.50662491
2347.23671	0.506618532
2345.30801	0.506490385
2343.3793	0.506605813
2341.45059	0.506599472
2339.52188	0.506593143
2337.59318	0.506704981
2335.66447	0.506577374
2333.73576	0.506450072
2331.80706	0.506443914
2329.87835	0.506555423
2327.94964	0.506549178
2326.02093	0.506660324
2324.09223	0.506771205
2322.16352	0.506644518
2320.23481	0.506638217
2318.3061	0.506511958
2316.3774	0.506385998
2314.44869	0.506260335
2312.51998	0.506490441
2310.59128	0.506364922
2308.66257	0.506594442
2306.73386	0.506233827
2304.80515	0.506227967
2302.87645	0.506338028
2300.94774	0.506332083
2299.01903	0.506207543
2297.09033	0.506201732
2295.16162	0.50631136
2293.23291	0.506305465
2291.3042	0.50629958
2289.3755	0.506293706
2287.44679	0.506287844
2285.51808	0.506514658
2283.58937	0.50639089
2281.66067	0.506267409
2279.73196	0.506261596
2277.80325	0.506255792
2275.87455	0.50613284
2273.94584	0.506127168
2272.01713	0.506121506
2270.08842	0.505999077
2268.15972	0.505993545
2266.23101	0.506218333
2264.3023	0.506096158
2262.37359	0.506090554
2260.44489	0.505968779
2258.51618	0.505963303
2256.58747	0.506071019
2254.65877	0.505949657
2252.73006	0.506057143
2250.80135	0.50605161
2248.87264	0.505930657
2246.94394	0.505809979
2245.01523	0.505689577
2243.08652	0.505796772
2241.15782	0.505676658
2239.22911	0.505783624
2237.3004	0.505775764
2235.37169	0.505882353
2233.44299	0.505988701
2231.51428	0.505754909
2229.58557	0.505861136
2227.65686	0.50574195
2225.72816	0.505623032
2223.79945	0.505504381
2221.87074	0.505385996
2219.94204	0.505492042
2218.01333	0.50559785
2216.08462	0.505703422
2214.15591	0.505695778
2212.22721	0.505577867
2210.2985	0.505460218
2208.36979	0.505342832
2206.44108	0.505225706
2204.51238	0.505443235
2202.58367	0.505326232
2200.65496	0.505543237
2198.72626	0.505426357
2196.79755	0.505309735
2194.86884	0.50530504
2192.94013	0.505409583
2191.01143	0.505293339
2189.08272	0.505397665
2187.15401	0.505392912
2185.22531	0.505388168
2183.2966	0.505272408
2181.36789	0.505267779
2179.43918	0.505152379
2177.51048	0.505366922
2175.58177	0.50547046
2173.65306	0.505355191
2171.72435	0.505240175
2169.79565	0.505235602
2167.86694	0.505448997
2165.93823	0.505334204
2164.00953	0.50511203
2162.08082	0.504997827
2160.15211	0.505100933
2158.2234	0.505096508
2156.2947	0.505308776
2154.36599	0.505304178
2152.43728	0.505190311
2150.50857	0.505295008
2148.57987	0.50529272
2146.65116	0.505185825
2144.72245	0.50507669
2142.79375	0.505070119
2140.86504	0.505059203
2138.93633	0.505156854
2137.00762	0.505258639
2135.07892	0.505360206
2133.15021	0.505355613
2131.2215	0.505242885
2129.2928	0.505236162
2127.36409	0.505123826
2125.43538	0.50501173
2123.50667	0.505007458
2121.57797	0.5048957
2119.64926	0.504996811
2117.72055	0.504992564
2115.79184	0.505093379
2113.86314	0.505193979
2111.93443	0.505082592
2110.00572	0.505182991
2108.07702	0.504965138
2106.14831	0.505065428
2104.2196	0.50495467
2102.29089	0.50505476
2100.36219	0.505154639
2098.43348	0.505044136
2096.50477	0.505143817
2094.57606	0.505033557
2092.64736	0.50513304
2090.71865	0.505023022
2088.78994	0.505016722
2086.86124	0.505115891
2084.93253	0.504900938
2083.00382	0.505
2081.07511	0.504993758
2079.14641	0.505092496
2077.2177	0.50519103
2075.28899	0.504977188
2073.36029	0.504868448
2071.43158	0.504966887
2069.50287	0.504962779
2067.57416	0.50506303
2065.64546	0.504954583
2063.71675	0.504844362
2061.78804	0.504734459
2059.85933	0.504934211
2057.93063	0.504928131
2056.00192	0.505025641
2054.07321	0.504814587
2052.14451	0.504911993
2050.2158	0.505009201
2048.28709	0.505106209
2046.35838	0.50499898
2044.42968	0.504891969
2042.50097	0.504785176
2040.57226	0.5046786
2038.64355	0.504672897
2036.71485	0.504769637
2034.78614	0.504763835
2032.85743	0.504862237
2030.92873	0.504860267
2029.00002	0.504756122
2027.07131	0.504648343
2025.1426	0.504640839
2023.2139	0.504635228
2021.28519	0.504529897
2019.35648	0.504727419
2017.42778	0.504622186
2015.49907	0.504717928
2013.57036	0.504813478
2011.64165	0.504708475
2009.71295	0.504803843
2007.78424	0.5044991
2005.85553	0.504394726
2003.92682	0.504490122
2001.99812	0.50448654
2000.06941	0.50438247
1998.1407	0.504477612
1996.212	0.504474051
1994.28329	0.504470495
1992.35458	0.504567117
1990.42587	0.5044634
1988.49717	0.504259956
1986.56846	0.504354711
1984.63975	0.504351266
1982.71104	0.504545455
1980.78234	0.504442251
1978.85363	0.504438745
1976.92492	0.50433583
1974.99622	0.504332414
1973.06751	0.504229786
1971.1388	0.50422646
1969.21009	0.504223139
1967.28139	0.504219823
1965.35268	0.504117647
1963.42397	0.504116033
1961.49527	0.504021974
1959.56656	0.504125737
1957.63785	0.504021974
1955.70914	0.504106375
1953.78044	0.504195122
1951.85173	0.503995323
1949.92302	0.503894081
1947.99431	0.503793036
1946.06561	0.503886514
1944.1369	0.503787143
1942.20819	0.503978265
1940.27949	0.503875969
1938.35078	0.503967486
1936.42207	0.504060325
1934.49336	0.503959822
1932.56466	0.503666538
1930.63595	0.503566609
1928.70724	0.503756502
1926.77853	0.503753609
1924.84983	0.503847634
1922.92112	0.503652441
1920.99241	0.503746398
1919.06371	0.503648233
1917.135	0.503740648
1915.20629	0.503734917
1913.27758	0.503634277
1911.34888	0.503727777
1909.42017	0.503724928
1907.49146	0.503625954
1905.56276	0.503621807
1903.63405	0.503332699
1901.70534	0.503330162
1899.77663	0.503327629
1897.84793	0.5033251
1895.91922	0.503418154
1893.99051	0.50341556
1892.0618	0.50322336
1890.1331	0.503316278
1888.20439	0.5034078
1886.27568	0.503214826
1884.34698	0.503211182
1882.41827	0.503208758
1880.48956	0.503394945
1878.56085	0.503392386
1876.63215	0.503389831
1874.70344	0.503387279
1872.77473	0.50329133
1870.84602	0.503103254
1868.91732	0.50300865
1866.98861	0.503098592
1865.0599	0.502999625
1863.1312	0.503183521
1861.20249	0.503086997
1859.27378	0.503084689
1857.34507	0.50298842
1855.41637	0.502892331
1853.48766	0.502982849
1851.55895	0.502794337
1849.63025	0.502793296
1847.70154	0.502793296
1845.77283	0.502794337
1843.84412	0.502792256
1841.91542	0.502787068
1839.98671	0.502781899
1838.058	0.502778807
1836.12929	0.502961866
1834.20059	0.502867715
1832.27188	0.502867715
1830.34317	0.502682701
1828.41447	0.5025878
1826.48576	0.502493075
1824.55705	0.502490315
1822.62834	0.502579219
1820.69964	0.502576371
1818.77093	0.502574476
1816.84222	0.502664951
1814.91351	0.502571639
1812.98481	0.502662994
1811.0561	0.502570694
1809.12739	0.502568807
1807.19869	0.502474794
1805.26998	0.502473887
1803.34127	0.502382698
1801.41256	0.502474794
1799.48386	0.502565982
1797.55515	0.50247298
1795.62644	0.502565042
1793.69774	0.502566923
1791.76903	0.502475701
1789.84032	0.502289797
1787.91161	0.50228812
1785.98291	0.502196997
1784.0542	0.502288958
1782.12549	0.502288958
1780.19678	0.502380081
1778.26808	0.502380081
1776.33937	0.502380952
1774.41066	0.502292316
1772.48196	0.502386197
1770.55325	0.502293999
1768.62454	0.502108158
1766.69583	0.502197802
1764.76713	0.502196997
1762.83842	0.502289797
1760.90971	0.502382698
1758.981	0.502291476
1757.0523	0.502293157
1755.12359	0.502295684
1753.19488	0.502300755
1751.26618	0.502122163
1749.33747	0.5021253
1747.40876	0.502218935
1745.48005	0.50231353
1743.55135	0.50222387
1741.62264	0.502412769
1739.69393	0.502322125
1737.76523	0.502231313
1735.83652	0.502421759
1733.90781	0.502237136
1731.9791	0.502232974
1730.0504	0.502133977
1728.12169	0.502222222
1726.19298	0.502126086
1724.26427	0.502031019
1722.33557	0.502028772
1720.40686	0.502028772
1718.47815	0.501936912
1716.54945	0.502026529
1714.62074	0.50174472
1712.69203	0.501830831
1710.76332	0.502009499
1708.83462	0.501915709
1706.90591	0.501914312
1704.9772	0.501821494
1703.04849	0.501730104
1701.11979	0.501730734
1699.19108	0.501728215
1697.26237	0.501723825
1695.33367	0.501538462
1693.40496	0.501534019
1691.47625	0.501440922
1689.54754	0.501530153
1687.61884	0.501530704
1685.69013	0.501442481
1683.76142	0.501442481
1681.83272	0.501439885
1679.90401	0.501347225
1677.9753	0.501436782
1676.04659	0.501257636
1674.11789	0.501347225
1672.18918	0.501167175
1670.26047	0.501257184
1668.33176	0.501076426
1666.40306	0.500985133
1664.47435	0.501074499
1662.54564	0.501074499
1660.61694	0.501073729
1658.68823	0.500894454
1656.75952	0.500806307
1654.83081	0.500719166
1652.90211	0.500719942
1650.9734	0.500808335
1649.04469	0.500717618
1647.11598	0.500807465
1645.18728	0.500716846
1643.25857	0.500715564
1641.32986	0.500715052
1639.40116	0.500626006
1637.47245	0.500537442
1635.54374	0.500537634
1633.61503	0.50062623
1631.68633	0.500625112
1629.75762	0.500535714
1627.82891	0.500535906
1625.90021	0.500536097
1623.9715	0.500446828
1622.04279	0.500268001
1620.11408	0.500446508
1618.18538	0.500446668
1616.25667	0.500535906
1614.32796	0.50044603
1612.39925	0.500445553
1610.47055	0.500445553
1608.54184	0.500445553
1606.61313	0.500445395
1604.68443	0.500445236
1602.75572	0.500445077
1600.82701	0.500622887
1598.8983	0.500533618
1596.9696	0.500533428
1595.04089	0.500444286
1593.11218	0.500443971
1591.18347	0.500443498
1589.25477	0.500443027
1587.32606	0.500531161
1585.39735	0.500442243
1583.46865	0.500353482
1581.53994	0.500529848
1579.61123	0.500618047
1577.68252	0.500618265
1575.75382	0.500441306
1573.82511	0.500352485
1571.8964	0.500264131
1569.96769	0.500264131
1568.03899	0.500351741
1566.11028	0.500175623
1564.18157	0.500263296
1562.25287	0.500087858
1560.32416	0.50017618
1558.39545	0.500176243
1556.46674	0.500087889
1554.53804	0.500175254
1552.60933	0.500087489
1550.68062	0.5
1548.75192	0.500087397
1546.82321	0.500087428
1544.8945	0.5
1542.96579	0.5
1541.03709	0.500087765
1539.10838	0.500087612
1537.17967	0.5
1535.25096	0.500087245
1533.32226	0.5
1531.39355	0.5
1529.46484	0.5
1527.53614	0.500087093
1525.60743	0.500087154
1523.67872	0.5
1521.75001	0.500087367
1519.82131	0.5
1517.8926	0.5
1515.96389	0.500087154
1514.03518	0.500174216
1512.10648	0.500174277
1510.17777	0.499912755
1508.24906	0.499912633
1506.32036	0.499912694
1504.39165	0.499825905
1502.46294	0.499826268
1500.53423	0.499826208
1498.60553	0.5
1496.67682	0.500087002
1494.74811	0.5
1492.81941	0.499826147
1490.8907	0.499912968
1488.96199	0.499912937
1487.03328	0.499739085
1485.10458	0.499652536
1483.17587	0.499652657
1481.24716	0.499739448
1479.31845	0.499826147
1477.38975	0.499912937
1475.46104	0.49982548
1473.53233	0.499912572
1471.60363	0.499825052
1469.67492	0.499737625
1467.74621	0.499562402
1465.8175	0.499474238
1463.8888	0.499474053
1461.96009	0.499386288
1460.03138	0.499297259
1458.10267	0.499295527
1456.17397	0.499383694
1454.24526	0.49938521
1452.31655	0.499298738
1450.38785	0.499298984
1448.45914	0.499386718
1446.53043	0.499387148
1444.60172	0.499475157
1442.67302	0.499300699
1440.74431	0.499300455
1438.8156	0.499299475
1436.8869	0.499386288
1434.95819	0.499386718
1433.02948	0.499387362
1431.10077	0.499387362
1429.17207	0.499387362
1427.24336	0.499387362
1425.31465	0.499299475
1423.38594	0.499298738
1421.45724	0.499297506
1419.52853	0.499472203
1417.59982	0.499384128
1415.67112	0.499384561
1413.74241	0.499472388
1411.8137	0.499472017
1409.88499	0.499383477
1407.95629	0.499294781
1406.02758	0.499205929
1404.09887	0.499205368
1402.17016	0.499381516
1400.24146	0.499469402
1398.31275	0.4995576
1396.38404	0.4995576
1394.45534	0.499557913
1392.52663	0.499470152
1390.59792	0.499558694
1388.66921	0.499470152
1386.74051	0.499205087
1384.8118	0.499293785
1382.88309	0.499382389
1380.95439	0.499382607
1379.02568	0.499470899
1377.09697	0.499382607
1375.16826	0.499382389
1373.23956	0.499294284
1371.31085	0.499470899
1369.38214	0.499471086
1367.45343	0.499383042
1365.52473	0.499294781
1363.59602	0.499206489
1361.66731	0.499118787
1359.73861	0.499383694
1357.8099	0.499384345
1355.88119	0.499296765
1353.95248	0.499297012
1352.02378	0.49938521
1350.09507	0.499385642
1348.16636	0.499298246
1346.23765	0.499210942
1344.30895	0.498948475
1342.38024	0.498861048
1340.45153	0.498861048
1338.52283	0.498861447
1336.59412	0.498949947
1334.66541	0.498951049
1332.7367	0.498864629
1330.808	0.498777933
1328.87929	0.498691328
1326.95058	0.498691784
1325.02188	0.498691784
1323.09317	0.498517356
1321.16446	0.498604327
1319.23575	0.498603839
1317.30705	0.49851632
1315.37834	0.498341191
1313.44963	0.498165939
1311.52092	0.49825297
1309.59222	0.498165298
1307.66351	0.498077595
1305.7348	0.497989159
1303.8061	0.498075577
1301.87739	0.497987047
1299.94868	0.497985637
1298.01997	0.497984224
1296.09127	0.49798281
1294.16256	0.497805863
1292.23385	0.497891778
1290.30514	0.497889553
1288.37644	0.497799683
1286.44773	0.497797357
1284.51902	0.497795026
1282.59032	0.497703992
1280.66161	0.497700743
1278.7329	0.497520368
1276.80419	0.497515969
1274.87549	0.497422222
1272.94678	0.497505346
1271.01807	0.497587131
1269.08937	0.497577606
1267.16066	0.497566252
1265.23195	0.497463768
1263.30324	0.497545008
1261.37454	0.497359315
1259.44583	0.497361237
1257.51712	0.497095134
1255.58841	0.497102499
1253.65971	0.49692697
1251.731	0.496748555
1249.80229	0.496748555
1247.87359	0.496746204
1245.94488	0.496561708
1244.01617	0.496466751
1242.08746	0.496190131
1240.15876	0.495822739
1238.23005	0.495816661
1236.30134	0.495628415
1234.37263	0.495712461
1232.44393	0.495340764
1230.51522	0.495241581
1228.58651	0.495142071
1226.65781	0.495042233
1224.7291	0.494942064
1222.80039	0.494657332
1220.87168	0.494647471
1218.94298	0.494452663
1217.01427	0.493980367
1215.08556	0.493689681
1213.15686	0.493492004
1211.22815	0.493291092
1209.29944	0.492997199
1207.37073	0.49279431
1205.44203	0.492590508
1203.51332	0.492385787
1201.58461	0.491991709
1199.6559	0.491595845
1197.7272	0.491387469
1195.79849	0.491178145
1193.86978	0.490967865
1191.94108	0.490756623
1190.01237	0.49025974
1188.08366	0.490139766
1186.15495	0.489729315
1184.22625	0.489410859
1182.29754	0.489279506
1180.36883	0.488764045
1178.44012	0.488354037
1176.51142	0.488041999
1174.58271	0.487728866
1172.654	0.487409721
1170.7253	0.486988848
1168.79659	0.486565993
1166.86788	0.486236728
1164.93917	0.485905776
1163.01047	0.485477178
1161.08176	0.485142631
1159.15305	0.484710087
1157.22435	0.484371889
1155.29564	0.483928928
1153.36693	0.483580296
1151.43822	0.483229564
1149.50952	0.482772517
1147.58081	0.482207845
1145.6521	0.481639278
1143.72339	0.480968858
1141.79469	0.480089851
1139.86598	0.479320229
1137.93727	0.478537687
1136.00857	0.477750309
1134.07986	0.476948522
1132.15115	0.476141079
1130.22244	0.475426905
1128.29374	0.474487662
1126.36503	0.473540529
1124.43632	0.472362869
1122.50761	0.471386181
1120.57891	0.470500532
1118.6502	0.469492614
1116.72149	0.468474284
1114.79279	0.46733016
1112.86408	0.466391125
1110.93537	0.465426696
1109.00666	0.464450803
1107.07796	0.463668587
1105.14925	0.462892801
1103.22054	0.462107623
1101.29184	0.461104848
1099.36313	0.460231135
1097.43442	0.459385666
1095.50571	0.458675799
1093.57701	0.457980307
1091.6483	0.457280661
1089.71959	0.456576826
1087.79088	0.455743009
1085.86218	0.454988399
1083.93347	0.454333644
1082.00476	0.453545518
1080.07606	0.452643948
1078.14735	0.451628126
1076.21864	0.450734249
1074.28993	0.449857414
1072.36123	0.449130331
1070.43252	0.448053499
1068.50381	0.446971511
1066.5751	0.446231397
1064.6464	0.445246691
1062.71769	0.444122616
1060.78898	0.442884802
1058.86028	0.44191123
1056.93157	0.440990772
1055.00286	0.439961108
1053.07415	0.438959144
1051.14545	0.437712895
1049.21674	0.436571707
1047.28803	0.43542885
1045.35933	0.434040478
1043.43062	0.432894095
1041.50191	0.431746032
1039.5732	0.43070154
1037.6445	0.429549902
1035.71579	0.428501469
1033.78708	0.427101201
1031.85837	0.425453654
1029.92967	0.424294479
1028.00096	0.422925871
1026.07225	0.421840491
1024.14355	0.420304071
1022.21484	0.41866732
1020.28613	0.417033774
1018.35742	0.415403423
1016.42872	0.413675214
1014.50001	0.412094611
1012.5713	0.410418695
1010.64259	0.408649174
1008.71389	0.406787879
1006.78518	0.405032664
1004.85647	0.403093282
1002.92777	0.401255432
1000.99906	0.399372587
999.07035	0.3973462
997.14164	0.395416164
995.21294	0.393339768
993.28423	0.39145134
991.35552	0.389654339
989.42682	0.387705712
987.49811	0.38569697
985.5694	0.383624879
983.64069	0.381485993
981.71199	0.379765396
979.78328	0.377728722
977.85457	0.375708303
975.92586	0.373669884
973.99716	0.371861795
972.06845	0.369852758
970.13974	0.367551327
968.21104	0.365645404
966.28233	0.363544814
964.35362	0.361686017
962.42491	0.359564777
960.49621	0.357523471
958.5675	0.355470738
956.63879	0.353331631
954.71008	0.351012042
952.78138	0.34859789
950.85267	0.34625323
948.92396	0.344066476
946.99526	0.341864717
945.06655	0.339905363
943.13784	0.33783426
941.20913	0.335645678
939.28043	0.333333333
937.35172	0.331161781
935.42301	0.329131269
933.49431	0.327061428
931.5656	0.324951104
929.63689	0.322808007
927.70818	0.320534699
925.77948	0.318325208
923.85077	0.31627638
921.92206	0.314194113
919.99335	0.311875367
918.06465	0.309905101
916.13594	0.307899461
914.20723	0.305740181
912.27853	0.303326213
910.34982	0.301357187
908.42111	0.299219969
906.4924	0.297220467
904.5637	0.295490886
902.63499	0.293527508
900.70628	0.291653028
898.77757	0.290013228
896.84887	0.287813022
894.92016	0.285906945
892.99145	0.284156729
891.06275	0.282369146
889.13404	0.280542986
887.20533	0.278775079
885.27662	0.277224199
883.34792	0.275638719
881.41921	0.274117219
879.4905	0.272727273
877.5618	0.271205357
875.63309	0.269722014
873.70438	0.26838514
871.77567	0.266717616
869.84697	0.265306122
867.91826	0.264158262
865.98955	0.262993357
864.06084	0.261811024
862.13214	0.260610869
860.20343	0.259288853
858.27472	0.258350101
856.34602	0.257698541
854.41731	0.256629947
852.4886	0.255957272
850.55989	0.255064076
848.63119	0.254469854
846.70248	0.253762542
844.77377	0.253153911
842.84506	0.252324598
840.91636	0.25191164
838.98765	0.252029047
837.05894	0.251610133
835.13024	0.25118688
833.20153	0.251084128
831.27282	0.25087108
829.34411	0.250983822
827.41541	0.250878735
825.4867	0.250772627
823.55799	0.251220595
821.62929	0.252007136
819.70058	0.252688172
817.77187	0.253711201
815.84316	0.254405784
813.91446	0.254652746
811.98575	0.255474453
810.05704	0.256304448
808.12833	0.257142857
806.19963	0.258796296
804.27092	0.260223048
802.34221	0.262004662
800.41351	0.263895376
798.4848	0.266012155
796.55609	0.268349696
794.62738	0.270560748
792.69868	0.27264239
790.76997	0.275186567
788.84126	0.277596646
786.91255	0.280726257
784.98385	0.28372093
783.05514	0.287308229
781.12643	0.291027429
779.19773	0.295074349
777.26902	0.298514392
775.34031	0.302552204
773.4116	0.306765524
771.4829	0.311285846
769.55419	0.315935335
767.62548	0.320571956
765.69678	0.324884793
763.76807	0.329189687
761.83936	0.333946642
759.91065	0.33900644
757.98195	0.343146274
756.05324	0.347906121
754.12453	0.352372179
752.19582	0.357175819
750.26712	0.361829945
748.33841	0.366203704
746.4097	0.370301624
744.481	0.374592834
742.55229	0.378908073
740.62358	0.382779598
738.69487	0.38620366
736.76617	0.389830508
734.83746	0.393481342
732.90875	0.396870555
730.98004	0.400285578
729.05134	0.403248925
727.12263	0.406429942
725.19392	0.409551375
723.26522	0.412506059
721.33651	0.414515343
719.4078	0.416748286
717.47909	0.419497784
715.55039	0.421287129
713.62168	0.423593828
711.69297	0.425638458
709.76427	0.427923387
707.83556	0.429731101
705.90685	0.431562819
703.97814	0.432390746
702.04944	0.433747412
700.12073	0.434375
698.19202	0.435238595
696.26331	0.435816165
694.33461	0.436402342
692.4059	0.436997319
690.47719	0.437297297
688.54849	0.438692098
686.61978	0.439802089
684.69107	0.440866185
682.76236	0.441143498
680.83366	0.441176471
678.90495	0.441780822
676.97624	0.442396313
675.04753	0.443280977
673.11883	0.44359577
671.19012	0.443323442
669.26141	0.443645084
667.33271	0.443973349
665.404	0.444036697
663.47529	0.444375773
661.54658	0.444722049
659.61788	0.444794953
657.68917	0.445153061
655.76046	0.44551902
653.83176	0.445602606
651.90305	0.445687953
649.97434	0.446071904
648.04563	0.446464646
646.11693	0.447243022
644.18822	0.447115385
642.25951	0.447678448
640.3308	0.447552448
638.4021	0.447740113
636.47339	0.447537473
634.54468	0.447728911
632.61598	0.447848286
630.68727	0.44797048
628.75856	0.447270007
626.82985	0.447308567
624.90115	0.446236559
622.97244	0.445136187
621.04373	0.444444444
619.11502	0.444533121
617.18632	0.444624091
615.25761	0.44480785
613.3289	0.444719472
611.4002	0.44472153
609.47149	0.445561139
607.54278	0.446790541
605.61407	0.447189097
603.68537	0.4472103
601.75666	0.448006932
