4999.20917	0.313084112
4997.28046	0.311627907
4995.35176	0.310904872
4993.42305	0.310185185
4991.49434	0.311778291
4989.56564	0.311059908
4987.63693	0.310344828
4985.70822	0.311926606
4983.77951	0.311212815
4981.85081	0.310502283
4979.9221	0.309794989
4977.99339	0.309090909
4976.06468	0.310657596
4974.13598	0.310657596
4972.20727	0.309954751
4970.27856	0.310810811
4968.34986	0.31011236
4966.42115	0.30941704
4964.49244	0.310961969
4962.56373	0.310267857
4960.63503	0.309576837
4958.70632	0.308888889
4956.77761	0.310421286
4954.8489	0.309734513
4952.9202	0.311258278
4950.99149	0.310572687
4949.06278	0.30989011
4947.13408	0.309210526
4945.20537	0.310722101
4943.27666	0.310043668
4941.34795	0.309368192
4939.41925	0.308695652
4937.49054	0.310195228
4935.56183	0.30952381
4933.63313	0.308855292
4931.70442	0.310344828
4929.77571	0.309677419
4927.847	0.309012876
4925.9183	0.308351178
4923.98959	0.307036247
4922.06088	0.308510638
4920.13217	0.308510638
4918.20347	0.309322034
4916.27476	0.308668076
4914.34605	0.308016878
4912.41735	0.307368421
4910.48864	0.308823529
4908.55993	0.308176101
4906.63122	0.307531381
4904.70252	0.308333333
4902.77381	0.307692308
4900.8451	0.307053942
4898.91639	0.308488613
4896.98769	0.308488613
4895.05898	0.30785124
4893.13027	0.307216495
4891.20157	0.308008214
4889.27286	0.307377049
4887.34415	0.306748466
4885.41544	0.308163265
4883.48674	0.307535642
4881.55803	0.306910569
4879.62932	0.306288032
4877.70062	0.305668016
4875.77191	0.307070707
4873.8432	0.306451613
4871.91449	0.307228916
4869.98579	0.306613226
4868.05708	0.306
4866.12837	0.306772908
4864.19966	0.306163022
4862.27096	0.305555556
4860.34225	0.306930693
4858.41354	0.306324111
4856.48484	0.30511811
4854.55613	0.30511811
4852.62742	0.306483301
4850.69871	0.305283757
4848.77001	0.3046875
4846.8413	0.304093567
4844.91259	0.305447471
4842.98388	0.304854369
4841.05518	0.304263566
4839.12647	0.305019305
4837.19776	0.304431599
4835.26906	0.305769231
4833.34035	0.305182342
4831.41164	0.304597701
4829.48293	0.304015296
4827.55423	0.304761905
4825.62552	0.30418251
4823.69681	0.303605313
4821.76811	0.304924242
4819.8394	0.304347826
4817.91069	0.303773585
4815.98198	0.305084746
4814.05328	0.303939962
4812.12457	0.303370787
4810.19586	0.304672897
4808.26715	0.303538175
4806.33845	0.302973978
4804.40974	0.302411874
4802.48103	0.303703704
4800.55233	0.303142329
4798.62362	0.304428044
4796.69491	0.303308824
4794.7662	0.302752294
4792.8375	0.302197802
4790.90879	0.303473492
4788.98008	0.302919708
4787.05137	0.301818182
4785.12267	0.301270417
4783.19396	0.302536232
4781.26525	0.30198915
4779.33655	0.302702703
4777.40784	0.302158273
4775.47913	0.301615799
4773.55042	0.302325581
4771.62172	0.301785714
4769.69301	0.301247772
4767.7643	0.302491103
4765.8356	0.30141844
4763.90689	0.302654867
4761.97818	0.302120141
4760.04947	0.301587302
4758.12077	0.30228471
4756.19206	0.301754386
4754.26335	0.301225919
4752.33464	0.30017452
4750.40594	0.301393728
4748.47723	0.300869565
4746.54852	0.29982669
4744.61982	0.301038062
4742.69111	0.300518135
4740.7624	0.3
4738.83369	0.300687285
4736.90499	0.299657534
4734.97628	0.299145299
4733.04757	0.300341297
4731.11886	0.299829642
4729.19016	0.298811545
4727.26145	0.3
4725.33274	0.299492386
4723.40404	0.298986486
4721.47533	0.300168634
4719.54662	0.299159664
4717.61791	0.30033557
4715.68921	0.299832496
4713.7605	0.299331104
4711.83179	0.298333333
4709.90308	0.299500832
4707.97438	0.298507463
4706.04567	0.299668874
4704.11696	0.298679868
4702.18826	0.298187809
4700.25955	0.299342105
4698.33084	0.298850575
4696.40213	0.29787234
4694.47343	0.298531811
4692.54472	0.298045603
4690.61601	0.297560976
4688.68731	0.29821718
4686.7586	0.297734628
4684.82989	0.297253635
4682.90118	0.297906602
4680.97248	0.297427653
4679.04377	0.296474359
4677.11506	0.2976
4675.18635	0.297124601
4673.25765	0.297770701
4671.32894	0.297297297
4669.40023	0.297939778
4667.47153	0.297468354
4665.54282	0.29699842
4663.61411	0.296529968
4661.6854	0.297169811
4659.7567	0.296238245
4657.82799	0.295774648
4655.89928	0.2953125
4653.97057	0.296411856
4652.04187	0.297045101
4650.11316	0.296124031
4648.18445	0.295665635
4646.25575	0.295208655
4644.32704	0.294298921
4642.39833	0.295384615
4640.46962	0.29601227
4638.54092	0.295558959
4636.61221	0.294656489
4634.6835	0.295731707
4632.7548	0.295281583
4630.82609	0.295902883
4628.89738	0.295454545
4626.96867	0.295007564
4625.03997	0.294117647
4623.11126	0.293674699
4621.18255	0.294294294
4619.25384	0.293413174
4617.32514	0.292974589
4615.39643	0.293591654
4613.46772	0.294642857
4611.53902	0.293768546
4609.61031	0.293333333
4607.6816	0.29394387
4605.75289	0.293078056
4603.82419	0.292647059
4601.89548	0.293685756
4599.96677	0.292825769
4598.03806	0.293859649
4596.10936	0.293430657
4594.18065	0.294032023
4592.25194	0.293604651
4590.32324	0.292753623
4588.39453	0.291907514
4586.46582	0.292929293
4584.53711	0.292086331
4582.60841	0.293103448
4580.6797	0.29226361
4578.75099	0.293276109
4576.82229	0.292857143
4574.89358	0.292022792
4572.96487	0.291193182
4571.03616	0.292198582
4569.10746	0.291371994
4567.17875	0.292372881
4565.25004	0.291549296
4563.32133	0.291139241
4561.39263	0.290322581
4559.46392	0.290909091
4557.53521	0.290502793
4555.60651	0.291086351
4553.6778	0.290681502
4551.74909	0.291666667
4549.82038	0.290858726
4547.89168	0.290055249
4545.96297	0.291034483
4544.03426	0.290233838
4542.10555	0.291208791
4540.17685	0.290410959
4538.24814	0.290983607
4536.31943	0.29058663
4534.39073	0.291156463
4532.46202	0.29076087
4530.53331	0.2899729
4528.6046	0.290540541
4526.6759	0.290148448
4524.74719	0.289367429
4522.81848	0.290322581
4520.88978	0.289544236
4518.96107	0.288770053
4517.03236	0.288384513
4515.10365	0.289333333
4513.17495	0.28856383
4511.24624	0.289508632
4509.31753	0.288741722
4507.38882	0.287978864
4505.46012	0.288537549
4503.53141	0.287779238
4501.6027	0.287401575
4499.674	0.287958115
4497.74529	0.287581699
4495.81658	0.288135593
4493.88787	0.287760417
4491.95917	0.287012987
4490.03046	0.28626943
4488.10175	0.286821705
4486.17304	0.286451613
4484.24434	0.287001287
4482.31563	0.286632391
4480.38692	0.287179487
4478.45822	0.28681178
4476.52951	0.287356322
4474.6008	0.286624204
4472.67209	0.287166455
4470.74339	0.28680203
4468.81468	0.286075949
4466.88597	0.286616162
4464.95727	0.286254729
4463.02856	0.285534591
4461.09985	0.286072773
4459.17114	0.285356696
4457.24244	0.28625
4455.31373	0.286783042
4453.38502	0.286069652
4451.45631	0.285714286
4449.52761	0.285006196
4447.5989	0.285537701
4445.67019	0.285185185
4443.74149	0.285714286
4441.81278	0.285012285
4439.88407	0.284662577
4437.95536	0.285189718
4436.02666	0.284493284
4434.09795	0.285365854
4432.16924	0.284671533
4430.24053	0.283980583
4428.31183	0.284503632
4426.38312	0.284159613
4424.45441	0.283474065
4422.52571	0.283995187
4420.597	0.283313325
4418.66829	0.283832335
4416.73958	0.283492823
4414.81088	0.284009547
4412.88217	0.283333333
4410.95346	0.282660333
4409.02476	0.283511269
4407.09605	0.282840237
4405.16734	0.283353011
4403.23863	0.282685512
4401.30993	0.282021152
4399.38122	0.282532239
4397.45251	0.281871345
4395.5238	0.28271028
4393.5951	0.282051282
4391.66639	0.282887078
4389.73768	0.282229965
4387.80898	0.281575898
4385.88027	0.282407407
4383.95156	0.282909931
4382.02285	0.282258065
4380.09415	0.281609195
4378.16544	0.282110092
4376.23673	0.281464531
4374.30802	0.28196347
4372.37932	0.281641961
4370.45061	0.281001138
4368.5219	0.280363224
4366.5932	0.280860702
4364.66449	0.280225989
4362.73578	0.280721533
4360.80707	0.281214848
4358.87837	0.280583614
4356.94966	0.281075028
4355.02095	0.280446927
4353.09225	0.280133929
4351.16354	0.279510022
4349.23483	0.28
4347.30612	0.279379157
4345.37742	0.279867257
4343.44871	0.279249448
4341.52	0.279735683
4339.59129	0.280528053
4337.66259	0.279912184
4335.73388	0.279299014
4333.80517	0.279781421
4331.87647	0.27917121
4329.94776	0.278563656
4328.01905	0.279347826
4326.09034	0.278741866
4324.16164	0.279220779
4322.23293	0.279395901
4320.30422	0.279094828
4318.37551	0.278494624
4316.44681	0.277896996
4314.5181	0.278372591
4312.58939	0.277777778
4310.66069	0.278251599
4308.73198	0.277659574
4306.80327	0.278427205
4304.87456	0.277836691
4302.94586	0.278306878
4301.01715	0.277719113
4299.08844	0.277133825
4297.15974	0.276550999
4295.23103	0.277019937
4293.30232	0.276439791
4291.37361	0.276907001
4289.44491	0.27632951
4287.5162	0.276795005
4285.58749	0.276220145
4283.65878	0.276683938
4281.73008	0.276111686
4279.80137	0.275541796
4277.87266	0.276004119
4275.94396	0.276464543
4274.01525	0.275897436
4272.08654	0.276356192
4270.15783	0.275791624
4268.22913	0.275229358
4266.30042	0.275686673
4264.37171	0.275406504
4262.443	0.27484787
4260.5143	0.275303644
4258.58559	0.274747475
4256.65688	0.275201613
4254.72818	0.275653924
4252.79947	0.275100402
4250.87076	0.275551102
4248.94205	0.274725275
4247.01335	0.274177468
4245.08464	0.273631841
4243.15593	0.27408143
4241.22723	0.273538157
4239.29852	0.273986152
4237.36981	0.273445212
4235.4411	0.272906404
4233.5124	0.273352999
4231.58369	0.272816487
4229.65498	0.273261508
4227.72627	0.27370479
4225.79757	0.273170732
4223.86886	0.272638754
4221.94015	0.272108844
4220.01145	0.272550921
4218.08274	0.272023233
4216.15403	0.272463768
4214.22532	0.271938284
4212.29662	0.272115385
4210.36791	0.27159309
4208.4392	0.272030651
4206.51049	0.272466539
4204.58179	0.271946565
4202.65308	0.271428571
4200.72437	0.271863118
4198.79567	0.271347249
4196.86696	0.271780303
4194.93825	0.271010387
4193.00954	0.271442036
4191.08084	0.270931326
4189.15213	0.270422535
4187.22342	0.270852858
4185.29472	0.271281572
4183.36601	0.270774977
4181.4373	0.27027027
4179.50859	0.270697674
4177.57989	0.269944341
4175.65118	0.27037037
4173.72247	0.26987061
4171.79376	0.270295203
4169.86506	0.269549218
4167.93635	0.269054178
4166.00764	0.269724771
4164.07894	0.27014652
4162.15023	0.269406393
4160.22152	0.2698268
4158.29281	0.26933576
4156.36411	0.268846503
4154.4354	0.268359021
4152.50669	0.268535262
4150.57798	0.268953069
4148.64928	0.268468468
4146.72057	0.268884892
4144.79186	0.269058296
4142.86316	0.268576544
4140.93445	0.268096515
4139.00574	0.267618198
4137.07703	0.268032057
4135.14833	0.267555556
4133.21962	0.267730496
4131.29091	0.267256637
4129.36221	0.267667845
4127.4335	0.266960352
4125.50479	0.267370273
4123.57608	0.26690079
4121.64738	0.267309378
4119.71867	0.266841645
4117.78996	0.266375546
4115.86125	0.266550523
4113.93255	0.266956522
4112.00384	0.266493056
4110.07513	0.266897747
4108.14643	0.266435986
4106.21772	0.265746333
4104.28901	0.265920826
4102.3603	0.266323024
4100.4316	0.265866209
4098.50289	0.266267123
4096.57418	0.265811966
4094.64547	0.265358362
4092.71677	0.264906303
4090.78806	0.265080714
4088.85935	0.264631043
4086.93065	0.264805415
4085.00194	0.264358108
4083.07323	0.264755481
4081.14452	0.264087468
4079.21582	0.264483627
4077.28711	0.263819095
4075.3584	0.264214047
4073.4297	0.263772955
4071.50099	0.263946711
4069.57228	0.263507897
4067.64357	0.263900415
4065.71487	0.263463132
4063.78616	0.263854425
4061.85745	0.263418662
4059.92874	0.263591433
4058.00004	0.263157895
4056.07133	0.262510254
4054.14262	0.262899263
4052.21392	0.262254902
4050.28521	0.262642741
4048.3565	0.263029316
4046.42779	0.262388302
4044.49909	0.262773723
4042.57038	0.262135922
4040.64167	0.261712439
4038.71296	0.262096774
4036.78426	0.2614642
4034.85555	0.26184739
4032.92684	0.261427426
4030.99814	0.2616
4029.06943	0.261182109
4027.14072	0.26076555
4025.21201	0.260938743
4023.28331	0.261318507
4021.3546	0.260904044
4019.42589	0.261075949
4017.49719	0.260663507
4015.56848	0.260047281
4013.63977	0.260220126
4011.71106	0.260596546
4009.78236	0.260767424
4007.85365	0.260359656
4005.92494	0.260530421
4003.99623	0.260124611
4002.06753	0.259720062
4000.13882	0.259891389
3998.21011	0.259488768
3996.28141	0.259860789
3994.3527	0.259459459
3992.42399	0.258859784
3990.49528	0.259031514
3988.56658	0.258633922
3986.63787	0.258805513
3984.70916	0.258409786
3982.78045	0.257818459
3980.85175	0.258187357
3978.92304	0.258555133
3976.99433	0.257966616
3975.06563	0.258333333
3973.13692	0.257747543
3971.20821	0.257164404
3969.2795	0.25753012
3967.3508	0.257700977
3965.42209	0.257314329
3963.49338	0.257677903
3961.56468	0.257100149
3959.63597	0.257270694
3957.70726	0.256887565
3955.77855	0.256315007
3953.84985	0.256676558
3951.92114	0.256296296
3949.99243	0.255728012
3948.06372	0.256088561
3946.13502	0.256259205
3944.20631	0.256617647
3942.2776	0.256052825
3940.3489	0.255490483
3938.42019	0.255661066
3936.49148	0.255288111
3934.56277	0.254916242
3932.63407	0.255272727
3930.70536	0.254716981
3928.77665	0.254887762
3926.84794	0.25433526
3924.91924	0.253785148
3922.99053	0.254139669
3921.06182	0.25449317
3919.13312	0.254127782
3917.20441	0.254480287
3915.2757	0.25375268
3913.34699	0.253922967
3911.41829	0.254092527
3909.48958	0.254261364
3907.56087	0.253371185
3905.63217	0.253191489
3903.70346	0.252303331
3901.77475	0.252475248
3899.84604	0.252646436
3897.91734	0.253164557
3895.98863	0.252631579
3894.05992	0.252277505
3892.13121	0.252624213
3890.20251	0.252094972
3888.2738	0.252440725
3886.34509	0.252089136
3884.41639	0.252258513
3882.48768	0.251733703
3880.55897	0.251903114
3878.63026	0.251897861
3876.70156	0.25137741
3874.77285	0.251031637
3872.84414	0.250859107
3870.91543	0.251373626
3868.98673	0.251369863
3867.05802	0.250854409
3865.12931	0.251023192
3863.20061	0.251191287
3861.2719	0.251188052
3859.34319	0.250677507
3857.41448	0.25
3855.48578	0.249830278
3853.55707	0.249660787
3851.62836	0.249831195
3849.69966	0.249832102
3847.77095	0.249832552
3845.84224	0.25
3843.91353	0.248998665
3841.98483	0.248832555
3840.05612	0.249333333
3838.12741	0.249001332
3836.1987	0.249003984
3834.27	0.249006623
3832.34129	0.249009247
3830.41258	0.249176005
3828.48388	0.24852071
3826.55517	0.248850952
3824.62646	0.24852459
3822.69775	0.247706422
3820.76905	0.247382199
3818.84034	0.248203788
3816.91163	0.248370274
3814.98292	0.248374512
3813.05422	0.248056995
3811.12551	0.247575953
3809.1968	0.247416021
3807.2681	0.247096774
3805.33939	0.246778351
3803.41068	0.246460746
3801.48197	0.246786632
3799.55327	0.246794872
3797.62456	0.246645367
3795.69585	0.24665392
3793.76715	0.246662428
3791.83844	0.246827411
3789.90973	0.246358455
3787.98102	0.246523388
3786.05232	0.246212121
3784.12361	0.245746692
3782.1949	0.245437382
3780.26619	0.245603015
3778.33749	0.245768025
3776.40878	0.245778612
3774.48007	0.245318352
3772.55137	0.245012469
3770.62266	0.244707347
3768.69395	0.244402985
3766.76524	0.244416873
3764.83654	0.244582043
3762.90783	0.244128554
3760.97912	0.244444444
3759.05041	0.243992606
3757.12171	0.244157442
3755.193	0.244007376
3753.26429	0.244157442
3751.33559	0.243392747
3749.40688	0.243558282
3747.47817	0.243259804
3745.54946	0.242498469
3743.62076	0.242220866
3741.69205	0.242865817
3739.76334	0.242883101
3737.83464	0.242277408
3735.90593	0.242130751
3733.97722	0.242149758
3732.04851	0.242478941
3730.11981	0.24235153
3728.1911	0.24251497
3726.26239	0.24222488
3724.33368	0.24238806
3722.40498	0.242406194
3720.47627	0.241973841
3718.54756	0.241992883
3716.61886	0.241563055
3714.69015	0.241420118
3712.76144	0.241277351
3710.83273	0.240850059
3708.90403	0.241318423
3706.97532	0.241197183
3705.04661	0.240773286
3703.1179	0.240491516
3701.1892	0.240654206
3699.26049	0.240675991
3697.33178	0.240837696
3695.40308	0.240418118
3693.47437	0.239698201
3691.54566	0.239698201
3689.61695	0.239559165
3687.68825	0.239444766
3685.75954	0.239769452
3683.83083	0.239792984
3681.90213	0.239517519
3679.97342	0.239380023
3678.04471	0.23880597
3676.116	0.23880597
3674.1873	0.238831615
3672.25859	0.238993711
3670.32988	0.238584475
3668.40117	0.238339022
3666.47247	0.238797504
3664.54376	0.238822864
3662.61505	0.238418079
3660.68635	0.238148984
3658.75764	0.238014664
3656.82893	0.237880496
3654.90022	0.238041643
3652.97152	0.237345332
3651.04281	0.236916151
3649.1141	0.236782902
3647.18539	0.237240606
3645.25669	0.236871508
3643.32798	0.23690078
3641.39927	0.23706177
3639.47057	0.236666667
3637.54186	0.236958935
3635.61315	0.236696231
3633.68444	0.236565097
3631.75574	0.236141907
3629.82703	0.235587583
3627.89832	0.235619469
3625.96961	0.235942668
3624.04091	0.235973597
3622.1122	0.235423542
3620.18349	0.235423542
3618.25479	0.235035695
3616.32608	0.234777839
3614.39737	0.234392114
3612.46866	0.234811166
3610.53996	0.234554401
3608.61125	0.234170306
3606.68254	0.234204793
3604.75384	0.23423913
3602.82513	0.23385784
3600.89642	0.23373102
3598.96771	0.234019502
3597.03901	0.233639805
3595.1103	0.233387358
3593.18159	0.233009709
3591.25288	0.232758621
3589.32418	0.232758621
3587.39547	0.233046286
3585.46676	0.233082707
3583.53806	0.233118971
3581.60935	0.232744783
3579.68064	0.232371795
3577.75193	0.232123799
3575.82323	0.231876333
3573.89452	0.232038318
3571.96581	0.231914894
3570.0371	0.231914894
3568.1084	0.231259968
3566.17969	0.231422505
3564.25098	0.230932203
3562.32228	0.231094659
3560.39357	0.2312566
3558.46486	0.231012658
3556.53615	0.231296101
3554.60745	0.231052632
3552.67874	0.230809674
3550.75003	0.231092437
3548.82133	0.230849948
3546.89262	0.230083857
3544.96391	0.230245945
3543.0352	0.230005227
3541.1065	0.229645094
3539.17779	0.229927007
3537.24908	0.2296875
3535.32037	0.229448491
3533.39167	0.22961039
3531.46296	0.229372081
3529.53425	0.229134266
3527.60555	0.229015544
3525.67684	0.229296066
3523.74813	0.229058945
3521.81942	0.228822314
3519.89072	0.228468283
3517.96201	0.228630278
3516.0333	0.228909465
3514.10459	0.228674203
3512.17589	0.228439425
3510.24718	0.22808816
3508.31847	0.227854583
3506.38977	0.22801636
3504.46106	0.227783453
3502.53235	0.22755102
3500.60364	0.22720326
3498.67494	0.22697201
3496.74623	0.227134146
3494.81752	0.226903553
3492.88882	0.226673428
3490.96011	0.226950355
3489.0314	0.226720648
3487.10269	0.226376958
3485.17399	0.226653205
3483.24528	0.226310484
3481.31657	0.226082578
3479.38786	0.225741579
3477.45916	0.225903614
3475.53045	0.225677031
3473.60174	0.225338007
3471.67304	0.2255
3469.74433	0.225274725
3467.81562	0.225436409
3465.88691	0.22559761
3463.95821	0.225261064
3462.0295	0.224925521
3460.10079	0.224702381
3458.17208	0.224368499
3456.24338	0.224530168
3454.31467	0.224802372
3452.38596	0.22446966
3450.45726	0.224248398
3448.52855	0.224409449
3446.59984	0.224078624
3444.67113	0.223748773
3442.74243	0.223909848
3440.81372	0.223581213
3438.88501	0.223742062
3436.95631	0.223414634
3435.0276	0.223575256
3433.09889	0.223249027
3431.17018	0.223300971
3429.24148	0.222868217
3427.31277	0.223028544
3425.38406	0.222597779
3423.45535	0.222275796
3421.52665	0.222436206
3419.59794	0.222115385
3417.66923	0.222168906
3415.74053	0.221849545
3413.81182	0.221903396
3411.88311	0.221585482
3409.9544	0.221851145
3408.0257	0.221534064
3406.09699	0.221217888
3404.16828	0.221377672
3402.23957	0.221062619
3400.31087	0.221117424
3398.38216	0.220699433
3396.45345	0.220754717
3394.52475	0.220809793
3392.59604	0.220864662
3390.66733	0.220450281
3388.73862	0.220505618
3386.80992	0.220196353
3384.88121	0.220251983
3382.9525	0.219944082
3381.0238	0.219534884
3379.09509	0.219693451
3377.16638	0.219286045
3375.23767	0.219444444
3373.30897	0.219500924
3371.38026	0.219197047
3369.45155	0.2192538
3367.52284	0.218951242
3365.59414	0.219108865
3363.66543	0.218707015
3361.73672	0.218764302
3359.80802	0.218464351
3357.87931	0.218521898
3355.9506	0.218223235
3354.02189	0.218281037
3352.09319	0.217983651
3350.16448	0.218041704
3348.23577	0.217745586
3346.30706	0.217902351
3344.37836	0.217509025
3342.44965	0.217665615
3340.52094	0.217273954
3338.59224	0.217332735
3336.66353	0.217488789
3334.73482	0.217099373
3332.80611	0.216808225
3330.87741	0.21686747
3328.9487	0.216481069
3327.01999	0.216637011
3325.09129	0.21625222
3323.16258	0.216407982
3321.23387	0.216467463
3319.30516	0.216526734
3317.37646	0.216240071
3315.44775	0.216299559
3313.51904	0.215919085
3311.59033	0.215539947
3309.66163	0.215600351
3307.73292	0.215754923
3305.80421	0.215377894
3303.87551	0.21543829
3301.9468	0.215063126
3300.01809	0.215217391
3298.08938	0.21484375
3296.16068	0.214904679
3294.23197	0.214532872
3292.30326	0.214162349
3290.37455	0.214224138
3288.44585	0.214285714
3286.51714	0.214439192
3284.58843	0.213979417
3282.65973	0.214041096
3280.73102	0.214102564
3278.80231	0.213737201
3276.8736	0.213373083
3274.9449	0.213526159
3273.01619	0.21358811
3271.08748	0.213135593
3269.15878	0.21319797
3267.23007	0.213260135
3265.30136	0.212900506
3263.37265	0.212962963
3261.44395	0.212605042
3259.51524	0.21233739
3257.58653	0.212400503
3255.65782	0.212045169
3253.72912	0.212108559
3251.80041	0.211754898
3249.8717	0.21181856
3247.943	0.211882011
3246.01429	0.211945251
3244.08558	0.211594203
3242.15687	0.21165771
3240.22817	0.211308296
3238.29946	0.211372064
3236.37075	0.211111111
3234.44204	0.211175021
3232.51334	0.210742107
3230.58463	0.210397053
3228.65592	0.21046179
3226.72722	0.210526316
3224.79851	0.210590631
3222.8698	0.210248068
3220.94109	0.210312627
3219.01239	0.209971625
3217.08368	0.210036423
3215.15497	0.20969697
3213.22627	0.209762001
3211.29756	0.209424084
3209.36885	0.209405145
3207.44014	0.209069021
3205.51144	0.209134615
3203.58273	0.2092
3201.65402	0.208865815
3199.72531	0.208931419
3197.79661	0.208598726
3195.8679	0.208664547
3193.93919	0.208250694
3192.01049	0.208316832
3190.08178	0.207987347
3188.15307	0.207971586
3186.22436	0.208037825
3184.29566	0.207710464
3182.36695	0.207776905
3180.43824	0.20745098
3178.50953	0.207517619
3176.58083	0.207502931
3174.65212	0.207179087
3172.72341	0.206775701
3170.79471	0.206842924
3168.866	0.206909938
3166.93729	0.206976744
3165.00858	0.206656347
3163.07988	0.206643492
3161.15117	0.20632472
3159.22246	0.206391991
3157.29376	0.206074587
3155.36505	0.206142035
3153.43634	0.205747126
3151.50763	0.205814843
3149.57893	0.205500382
3147.65022	0.205568268
3145.72151	0.20555767
3143.7928	0.205245154
3141.8641	0.205235205
3139.93539	0.204846649
3138.00668	0.204914934
3136.07798	0.204983012
3134.14927	0.204596835
3132.22056	0.204665162
3130.29185	0.204357626
3128.36315	0.204426107
3126.43444	0.20411985
3124.50573	0.20411215
3122.57702	0.204180664
3120.64832	0.203800298
3118.71961	0.203869048
3116.7909	0.203566122
3114.8622	0.203559511
3112.93349	0.203628286
3111.00478	0.203252033
3109.07607	0.203321033
3107.14737	0.203314917
3105.21866	0.202941176
3103.28995	0.203010279
3101.36125	0.20271261
3099.43254	0.202781845
3097.50383	0.202411399
3095.57512	0.202407002
3093.64642	0.202112163
3091.71771	0.202108324
3089.789	0.201814882
3087.86029	0.201811594
3085.93159	0.201519537
3084.00288	0.201516793
3082.07417	0.201226109
3080.14547	0.201223902
3078.21676	0.201221703
3076.28805	0.200932903
3074.35934	0.201003225
3072.43064	0.201001431
3070.50193	0.201071429
3068.57322	0.200784593
3066.64451	0.200427198
3064.71581	0.200497689
3062.7871	0.200141945
3060.85839	0.200141693
3058.92969	0.199858507
3057.00098	0.199929354
3055.07227	0.199576869
3053.14356	0.199295775
3051.21486	0.199297012
3049.28615	0.199368199
3047.35744	0.199439187
3045.42874	0.199440168
3043.50003	0.199510832
3041.57132	0.199162888
3039.64261	0.198885406
3037.71391	0.198608696
3035.7852	0.198680097
3033.85649	0.198751301
3031.92778	0.198407202
3029.99908	0.198478562
3028.07037	0.19820442
3026.14166	0.197862806
3024.21296	0.197934596
3022.28425	0.197662427
3020.35554	0.197734295
3018.42683	0.197463147
3016.49813	0.197535091
3014.56942	0.197264957
3012.64071	0.197404372
3010.712	0.197476126
3008.7833	0.197207084
3006.85459	0.197005784
3004.92588	0.196738022
3002.99718	0.196470987
3001.06847	0.196610169
2999.13976	0.19641043
2997.21105	0.196211096
2995.28235	0.196078431
2993.35364	0.195945946
2991.42493	0.195813639
2989.49623	0.195681511
2987.56752	0.195615514
2985.63881	0.195549562
2983.7101	0.195549562
2981.7814	0.195278246
2979.85269	0.195006748
2977.92398	0.19513842
2975.99527	0.195064233
2974.06657	0.195055875
2972.13786	0.194774347
2970.20915	0.194964274
2968.28045	0.194406548
2966.35174	0.194396994
2964.42303	0.194529915
2962.49432	0.194396994
2960.56562	0.194274029
2958.63691	0.194019708
2956.7082	0.193974272
2954.77949	0.193929174
2952.85079	0.193548387
2950.92208	0.193235097
2948.99337	0.193386774
2947.06467	0.193397799
2945.13596	0.193140193
2943.20725	0.193011647
2941.27854	0.192678869
2939.34984	0.192743009
2937.42113	0.192474192
2935.49242	0.192474192
2933.56372	0.192474192
2931.63501	0.19234609
2929.7063	0.192154255
2927.77759	0.19189907
2925.84889	0.191912496
2923.92018	0.191798942
2921.99147	0.191622691
2920.06276	0.19165023
2918.13406	0.191349934
2916.20535	0.191315704
2914.27664	0.191018549
2912.34794	0.191109669
2910.41923	0.190938511
2908.49052	0.190768238
2906.56181	0.190660225
2904.63311	0.190552699
2902.7044	0.190445656
2900.77569	0.190339091
2898.84698	0.190233004
2896.91828	0.190127389
2894.98957	0.190022243
2893.06086	0.189917565
2891.13216	0.189873418
2889.20345	0.189889415
2887.27474	0.189589905
2885.34603	0.189350977
2883.41733	0.189427313
2881.48862	0.189308176
2879.55991	0.189189189
2877.63121	0.189070352
2875.7025	0.188892375
2873.77379	0.188655594
2871.84508	0.188732394
2869.91638	0.1884375
2867.98767	0.188455538
2866.05896	0.188161994
2864.13025	0.188238955
2862.20155	0.188004972
2860.27284	0.18777157
2858.34413	0.187906977
2856.41543	0.187616099
2854.48672	0.187326121
2852.55801	0.187538556
2850.6293	0.187384615
2848.7006	0.187116564
2846.77189	0.187155963
2844.84318	0.186890244
2842.91447	0.186986926
2840.98577	0.186836518
2839.05706	0.186686838
2837.12835	0.186594203
2835.19965	0.186256781
2833.27094	0.18622142
2831.34223	0.186186186
2829.41352	0.185907046
2827.48482	0.185872493
2825.55611	0.18559474
2823.6274	0.185616234
2821.6987	0.18533969
2819.76999	0.1853615
2817.84128	0.185141159
2815.91257	0.185108276
2813.98387	0.185130332
2812.05516	0.184911243
2810.12645	0.18493353
2808.19774	0.184715255
2806.26904	0.184792219
2804.34033	0.184814597
2802.41162	0.18454305
2800.48292	0.1842723
2798.55421	0.184349355
2796.6255	0.184133489
2794.69679	0.183864367
2792.76809	0.18359603
2790.83938	0.183619936
2788.91067	0.183697234
2786.98196	0.183430233
2785.05326	0.183164006
2783.12455	0.183188406
2781.19584	0.182976259
2779.26714	0.183000867
2777.33843	0.182736721
2775.40972	0.182525952
2773.48101	0.182603687
2771.55231	0.182341099
2769.6236	0.182131571
2767.69489	0.1821572
2765.76619	0.182234957
2763.83748	0.181974249
2761.90877	0.182052015
2759.98006	0.181844134
2758.05136	0.181584949
2756.12265	0.18166287
2754.19394	0.1814562
2752.26523	0.181198523
2750.33653	0.180992908
2748.40782	0.180787759
2746.47911	0.180531975
2744.55041	0.18055948
2742.6217	0.180637878
2740.69299	0.18043417
2738.76428	0.180512532
2736.83558	0.180539933
2734.90687	0.180337079
2732.97816	0.180415264
2731.04945	0.180162511
2729.12075	0.179960817
2727.19204	0.179709335
2725.26333	0.179458554
2723.33463	0.179537218
2721.40592	0.179565702
2719.47721	0.179365962
2717.5485	0.179444444
2715.6198	0.179195562
2713.69109	0.178947368
2711.76238	0.17902601
2709.83368	0.178778668
2707.90497	0.178581286
2705.97626	0.17866005
2704.04755	0.178463233
2702.11885	0.178492849
2700.19014	0.178247734
2698.26143	0.178326475
2696.33272	0.178082192
2694.40402	0.177887247
2692.47531	0.177692728
2690.5466	0.177771709
2688.6179	0.177529316
2686.68919	0.177608281
2684.76048	0.177414966
2682.83177	0.177173913
2680.90307	0.177252986
2678.97436	0.177012741
2677.04565	0.176821013
2675.11694	0.1766297
2673.18824	0.17639114
2671.25953	0.176470588
2669.33082	0.176280323
2667.40212	0.176312248
2665.47341	0.176122614
2663.5447	0.176154672
2661.61599	0.175965665
2659.68729	0.175729976
2657.75858	0.175541879
2655.82987	0.175574559
2653.90117	0.175654031
2651.97246	0.175419888
2650.04375	0.175452609
2648.11504	0.175265957
2646.18634	0.175079702
2644.25763	0.174893843
2642.32892	0.174662073
2640.40021	0.174477098
2638.47151	0.174510841
2636.5428	0.174590597
2634.61409	0.174360327
2632.68539	0.174176548
2630.75668	0.173993156
2628.82797	0.173764458
2626.89926	0.173844538
2624.97056	0.173878836
2623.04185	0.17369662
2621.11314	0.173514787
2619.18443	0.173594771
2617.25573	0.173368146
2615.32702	0.173142112
2613.39831	0.172916667
2611.46961	0.172736733
2609.5409	0.172512341
2607.61219	0.172592785
2605.68348	0.172369103
2603.75478	0.172449508
2601.82607	0.172271081
2599.89736	0.172351421
2597.96865	0.172129032
2596.03995	0.171951534
2594.11124	0.172031934
2592.18253	0.1718107
2590.25383	0.171846905
2588.32512	0.171626475
2586.39641	0.171706817
2584.4677	0.171487074
2582.539	0.171311685
2580.61029	0.171136654
2578.68158	0.170918367
2576.75288	0.170700637
2574.82417	0.170781369
2572.89546	0.170564311
2570.96675	0.170391061
2569.03805	0.170428608
2567.10934	0.170255891
2565.18063	0.170293522
2563.25192	0.170078342
2561.32322	0.169863705
2559.39451	0.169944528
2557.4658	0.1697733
2555.5371	0.169602416
2553.60839	0.169640613
2551.67968	0.169470249
2549.75097	0.169508526
2547.82227	0.169338677
2545.89356	0.169126845
2543.96485	0.168957761
2542.03614	0.16874688
2540.10744	0.168785839
2538.17873	0.168617684
2536.25002	0.168656716
2534.32132	0.168489066
2532.39261	0.16827997
2530.4639	0.168319286
2528.53519	0.168152551
2526.60649	0.167986145
2524.67778	0.167778601
2522.74907	0.167859788
2520.82037	0.16765286
2518.89166	0.167692687
2516.96295	0.167527675
2515.03424	0.167567568
2513.10554	0.167116564
2511.17683	0.166952684
2509.24812	0.167034044
2507.31941	0.166829746
2505.39071	0.166625947
2503.462	0.166666667
2501.53329	0.166747928
2499.60459	0.166544923
2497.67588	0.166342412
2495.74717	0.166180758
2493.81846	0.166262136
2491.88976	0.166060606
2489.96105	0.165899734
2488.03234	0.165940977
2486.10363	0.165740517
2484.17493	0.165580497
2482.24622	0.165380906
2480.31751	0.165181796
2478.38881	0.165263411
2476.4601	0.165064873
2474.53139	0.164906385
2472.60268	0.164948454
2470.67398	0.164750958
2468.74527	0.164593301
2466.81656	0.164396655
2464.88786	0.164439141
2462.95915	0.164282308
2461.03044	0.164086687
2459.10173	0.163891532
2457.17303	0.163934426
2455.24432	0.163739915
2453.31561	0.163584637
2451.3869	0.163666509
2449.4582	0.163709487
2447.52949	0.163554715
2445.60078	0.163361662
2443.67208	0.163366337
2441.74337	0.163212435
2439.81466	0.163255705
2437.88595	0.163102233
2435.95725	0.162910798
2434.02854	0.162719812
2432.09983	0.162801593
2430.17112	0.162611137
2428.24242	0.162421126
2426.31371	0.162464986
2424.385	0.162275589
2422.4563	0.162086633
2420.52759	0.161935784
2418.59888	0.161980014
2416.67017	0.161792015
2414.74147	0.161604452
2412.81276	0.161648912
2410.88405	0.161461948
2408.95535	0.161312688
2407.02664	0.161357341
2405.09793	0.161171317
2403.16922	0.161216029
2401.24052	0.161030596
2399.31181	0.160845588
2397.3831	0.160697888
2395.45439	0.160513644
2393.52569	0.160329821
2391.59698	0.160411899
2389.66827	0.160228571
2387.73957	0.160237389
2385.81086	0.16005472
2383.88215	0.160100205
2381.95344	0.159954494
2380.02474	0.159772727
2378.09603	0.159854678
2376.16732	0.159673395
2374.23861	0.159492524
2372.30991	0.159348121
2370.3812	0.159167986
2368.45249	0.159214092
2366.52379	0.159070397
2364.59508	0.15911652
2362.66637	0.158937416
2360.73766	0.158758714
2358.80896	0.158580413
2356.88025	0.158366981
2354.95154	0.158413623
2353.02284	0.15820094
2351.09413	0.158247653
2349.16542	0.158070998
2347.23671	0.158153023
2345.30801	0.157976827
2343.3793	0.157836153
2341.45059	0.157883033
2339.52188	0.157742724
2337.59318	0.157567688
2335.66447	0.157393039
2333.73576	0.157218778
2331.80706	0.157044902
2329.87835	0.157057654
2327.94964	0.156884378
2326.02093	0.156711483
2324.09223	0.156759137
2322.16352	0.156552331
2320.23481	0.156380409
2318.3061	0.156428258
2316.3774	0.156256849
2314.44869	0.156304729
2312.51998	0.156133829
2310.59128	0.15614763
2308.66257	0.155977312
2306.73386	0.155841325
2304.80515	0.155671674
2302.87645	0.155719878
2300.94774	0.155767977
2299.01903	0.155598958
2297.09033	0.155430306
2295.16162	0.155262018
2293.23291	0.15512765
2291.3042	0.154960017
2289.3755	0.154826171
2287.44679	0.154874892
2285.51808	0.154708037
2283.58937	0.15475678
2281.66067	0.154590411
2279.73196	0.154209622
2277.80325	0.154291845
2275.87455	0.154126474
2273.94584	0.154175589
2272.01713	0.154010695
2270.08842	0.153879034
2268.15972	0.153714774
2266.23101	0.153550864
2264.3023	0.153600341
2262.37359	0.153469562
2260.44489	0.1533064
2258.51618	0.15335599
2256.58747	0.153193295
2254.65877	0.152998517
2252.73006	0.152836579
2250.80135	0.152886445
2248.87264	0.152692714
2246.94394	0.152742616
2245.01523	0.152549515
2243.08652	0.152388971
2241.15782	0.152406979
2239.22911	0.152214991
2237.3004	0.152055369
2235.37169	0.151864265
2233.44299	0.151914626
2231.51428	0.151724138
2229.58557	0.151742851
2227.65686	0.151553054
2225.72816	0.151603499
2223.79945	0.151622296
2221.87074	0.151672554
2219.94204	0.15148371
2218.01333	0.1513267
2216.08462	0.151138716
2214.15591	0.15098242
2212.22721	0.151001859
2210.2985	0.150846059
2208.36979	0.150690579
2206.44108	0.150504427
2204.51238	0.15034965
2202.58367	0.150400657
2200.65496	0.150246305
2198.72626	0.150297314
2196.79755	0.150112636
2194.86884	0.150163666
2192.94013	0.150010219
2191.01143	0.149857085
2189.08272	0.149908219
2187.15401	0.149755501
2185.22531	0.149603094
2183.2966	0.149450996
2181.36789	0.149299208
2179.43918	0.149147727
2177.51048	0.14919927
2175.58177	0.149048198
2173.65306	0.148897431
2171.72435	0.148746968
2169.79565	0.14859681
2167.86694	0.148648649
2165.93823	0.148498892
2164.00953	0.148550725
2162.08082	0.148602453
2160.15211	0.148453194
2158.2234	0.148304234
2156.2947	0.148155573
2154.36599	0.148036859
2152.43728	0.147888733
2150.50857	0.147770446
2148.57987	0.147711373
2146.65116	0.147511493
2144.72245	0.147511493
2142.79375	0.147305389
2140.86504	0.147410359
2138.93633	0.14714655
2137.00762	0.147140588
2135.07892	0.146994644
2133.15021	0.146848989
2131.2215	0.146674584
2129.2928	0.1466983
2127.36409	0.146553427
2125.43538	0.146577234
2123.50667	0.146432795
2121.57797	0.146288639
2119.64926	0.146144768
2117.72055	0.145972495
2115.79184	0.146025515
2113.86314	0.146049794
2111.93443	0.145906776
2110.00572	0.145735524
2108.07702	0.145788548
2106.14831	0.145617802
2104.2196	0.145475819
2102.29089	0.145334113
2100.36219	0.145164429
2098.43348	0.145189504
2096.50477	0.145020384
2094.57606	0.145073701
2092.64736	0.144905076
2090.71865	0.144736842
2088.78994	0.144568999
2086.86124	0.144594595
2084.93253	0.144427304
2083.00382	0.144453005
2081.07511	0.144286264
2079.14641	0.144147607
2077.2177	0.14398157
2075.28899	0.143815916
2073.36029	0.143842176
2071.43158	0.143677061
2069.50287	0.143758364
2067.57416	0.14364852
2065.64546	0.14351145
2063.71675	0.143319992
2061.78804	0.143292103
2059.85933	0.143101482
2057.93063	0.143128322
2056.00192	0.1431551
2054.07321	0.142992424
2052.14451	0.142857143
2050.2158	0.142695143
2048.28709	0.14253351
2046.35838	0.142372242
2044.42968	0.142399699
2042.50097	0.142265713
2040.57226	0.142293233
2038.64355	0.142132933
2036.71485	0.141999625
2034.78614	0.142027356
2032.85743	0.141920989
2030.92873	0.141680704
2029.00002	0.141627689
2027.07131	0.14160284
2025.1426	0.141391531
2023.2139	0.141393443
2021.28519	0.141235579
2019.35648	0.141104294
2017.42778	0.140973254
2015.49907	0.14102802
2013.57036	0.141056534
2011.64165	0.140899833
2009.71295	0.140769515
2007.78424	0.140639438
2005.85553	0.140509601
2003.92682	0.140380004
2001.99812	0.140434943
2000.06941	0.140305653
1998.1407	0.140150818
1996.212	0.140022051
1994.28329	0.139893519
1992.35458	0.139790864
1990.42587	0.139662757
1988.49717	0.139718
1986.56846	0.139564661
1984.63975	0.139619883
1982.71104	0.139492423
1980.78234	0.139365195
1978.85363	0.13926358
1976.92492	0.139136769
1974.99622	0.139010189
1973.06751	0.139090909
1971.1388	0.138989826
1969.21009	0.138863678
1967.28139	0.138762924
1965.35268	0.138637187
1963.42397	0.138561855
1961.49527	0.138556402
1959.56656	0.138344227
1957.63785	0.138324873
1955.70914	0.138236357
1953.78044	0.138092663
1951.85173	0.137943454
1949.92302	0.137844161
1947.99431	0.137875247
1946.06561	0.137726701
1944.1369	0.137603158
1942.20819	0.137659079
1940.27949	0.137486574
1938.35078	0.1373145
1936.42207	0.137191854
1934.49336	0.137069427
1932.56466	0.137125535
1930.63595	0.137003385
1928.70724	0.137059452
1926.77853	0.136784063
1924.84983	0.13666252
1922.92112	0.136565441
1920.99241	0.1364685
1919.06371	0.136371697
1917.135	0.136226749
1915.20629	0.136210861
1913.27758	0.136066443
1911.34888	0.136146919
1909.42017	0.136026817
1907.49146	0.136083201
1905.56276	0.135939426
1903.63405	0.135819845
1901.70534	0.135700475
1899.77663	0.135605129
1897.84793	0.135509918
1895.91922	0.13541484
1893.99051	0.135296179
1892.0618	0.135201401
1890.1331	0.134931747
1888.20439	0.134988634
1886.27568	0.134847162
1884.34698	0.134904014
1882.41827	0.134786399
1880.48956	0.13466899
1878.56085	0.134725849
1876.63215	0.134608696
1874.70344	0.134491746
1872.77473	0.134248003
1870.84602	0.134248003
1868.91732	0.134201389
1866.98861	0.134188627
1865.0599	0.134152674
1863.1312	0.134013488
1861.20249	0.133897719
1859.27378	0.133782151
1857.34507	0.133839255
1855.41637	0.133723936
1853.48766	0.13380403
1851.55895	0.133688919
1849.63025	0.133596974
1847.70154	0.133402097
1845.77283	0.133253095
1843.84412	0.133161512
1841.91542	0.133104631
1839.98671	0.133070731
1838.058	0.132934132
1836.12929	0.132820513
1834.20059	0.132707088
1832.27188	0.132684426
1830.34317	0.132468419
1828.41447	0.132378028
1826.48576	0.132413088
1824.55705	0.132277835
1822.62834	0.132290427
1820.69964	0.132155597
1818.77093	0.132065863
1816.84222	0.131976251
1814.91351	0.131909122
1812.98481	0.131864407
1811.0561	0.131627986
1809.12739	0.131538852
1807.19869	0.131449839
1805.26998	0.131383159
1803.34127	0.131383159
1801.41256	0.131214068
1799.48386	0.131169709
1797.55515	0.131081081
1795.62644	0.131081081
1793.69774	0.130978536
1791.76903	0.130809532
1789.84032	0.130845855
1787.91161	0.13075755
1785.98291	0.130588831
1784.0542	0.130420111
1782.12549	0.130398111
1780.19678	0.130376117
1778.26808	0.130332153
1776.33937	0.130354132
1774.41066	0.130126582
1772.48196	0.1300456
1770.55325	0.130001688
1768.62454	0.129892038
1766.69583	0.129760701
1764.76713	0.129695132
1762.83842	0.129738837
1760.90971	0.129614023
1758.981	0.129635873
1757.0523	0.129532805
1755.12359	0.129473329
1753.19488	0.129354075
1751.26618	0.129278211
1749.33747	0.129240163
1747.40876	0.129136263
1745.48005	0.129202037
1743.55135	0.129015808
1741.62264	0.129021277
1739.69393	0.12879046
1737.76523	0.128729753
1735.83652	0.128564111
1733.90781	0.128481121
1731.9791	0.128432543
1730.0504	0.128488768
1728.12169	0.128440367
1726.19298	0.12841391
1724.26427	0.128239878
1722.33557	0.127962085
1720.40686	0.127792823
1718.47815	0.127792823
1716.54945	0.127810651
1714.62074	0.127803069
1712.69203	0.127774042
1710.76332	0.127684564
1708.83462	0.127534775
1706.90591	0.127449338
1704.9772	0.127321399
1703.04849	0.1273001
1701.11979	0.127154091
1699.19108	0.127005348
1697.26237	0.126896782
1695.33367	0.126788686
1693.40496	0.126783936
1691.47625	0.126905235
1689.54754	0.126842192
1687.61884	0.126718569
1685.69013	0.126513016
1683.76142	0.126347206
1681.83272	0.12611718
1679.90401	0.12609486
1677.9753	0.126053197
1676.04659	0.12590879
1674.11789	0.125867195
1672.18918	0.125804854
1670.26047	0.125825627
1668.33176	0.125721828
1666.40306	0.125720877
1664.47435	0.12553542
1662.54564	0.125514742
1660.61694	0.125432099
1658.68823	0.125555373
1656.75952	0.125391333
1654.83081	0.125082617
1652.90211	0.12504135
1650.9734	0.124958732
1649.04469	0.124814509
1647.11598	0.124814509
1645.18728	0.124855872
1643.25857	0.124814998
1641.32986	0.124568611
1639.40116	0.124486104
1637.47245	0.124320764
1635.54374	0.12436172
1633.61503	0.124177632
1631.68633	0.124158318
1629.75762	0.123953374
1627.82891	0.123973727
1625.90021	0.124014455
1623.9715	0.123870544
1622.04279	0.123994088
1620.11408	0.123789197
1618.18538	0.123665627
1616.25667	0.123625021
1614.32796	0.123462863
1612.39925	0.12336173
1610.47055	0.123341523
1608.54184	0.123341523
1606.61313	0.123137383
1604.68443	0.12309707
1602.75572	0.123056783
1600.82701	0.122996402
1598.8983	0.122956181
1596.9696	0.123059323
1595.04089	0.12299902
1593.11218	0.122898645
1591.18347	0.122798434
1589.25477	0.122698387
1587.32606	0.122578545
1585.39735	0.122478855
1583.46865	0.122359441
1581.53994	0.122442351
1579.61123	0.122260107
1577.68252	0.122137405
1575.75382	0.122058107
1573.82511	0.122042139
1571.8964	0.12194332
1569.96769	0.121884105
1568.03899	0.121927555
1566.11028	0.121770026
1564.18157	0.121711057
1562.25287	0.121525533
1560.32416	0.121275907
1558.39545	0.121133603
1556.46674	0.121182744
1554.53804	0.121192587
1552.60933	0.121017058
1550.68062	0.120939209
1548.75192	0.120900322
1546.82321	0.120797812
1544.8945	0.120611916
1542.96579	0.120483871
1541.03709	0.120542198
1539.10838	0.120670211
1537.17967	0.120661954
1535.25096	0.120487727
1533.32226	0.120410454
1531.39355	0.120275464
1529.46484	0.120198464
1527.53614	0.120076849
1525.60743	0.119993592
1523.67872	0.119967923
1521.75001	0.119903692
1519.82131	0.119685545
1517.8926	0.119551282
1515.96389	0.119615693
1514.03518	0.119577397
1512.10648	0.119436439
1510.17777	0.119230769
1508.24906	0.119043799
1506.32036	0.119127786
1504.39165	0.119321817
1502.46294	0.119112247
1500.53423	0.119131268
1498.60553	0.119085678
1496.67682	0.119085678
1494.74811	0.119009585
1492.81941	0.11884984
1490.8907	0.1186251
1488.96199	0.118503119
1487.03328	0.118427361
1485.10458	0.118332801
1483.17587	0.118295019
1481.24716	0.118173108
1479.31845	0.118107719
1477.38975	0.118117798
1475.46104	0.118024375
1473.53233	0.117892708
1471.60363	0.117807779
1469.67492	0.117826716
1467.74621	0.117741676
1465.8175	0.117552335
1463.8888	0.117429124
1461.96009	0.117305833
1460.03138	0.117172369
1458.10267	0.117076326
1456.17397	0.117057397
1454.24526	0.116973217
1452.31655	0.116964717
1450.38785	0.116927041
1448.45914	0.116908213
1446.53043	0.116832958
1444.60172	0.116720257
1442.67302	0.116663988
1440.74431	0.116682739
1438.8156	0.116511104
1436.8869	0.116443872
1434.95819	0.116207951
1433.02948	0.11627533
1431.10077	0.116095835
1429.17207	0.116114506
1427.24336	0.115953683
1425.31465	0.116009654
1423.38594	0.115960702
1421.45724	0.115825133
1419.52853	0.115527549
1417.59982	0.115564894
1415.67112	0.115508885
1413.74241	0.115527549
1411.8137	0.115620957
1409.88499	0.115552678
1407.95629	0.115322319
1406.02758	0.115272374
1404.09887	0.115184945
1402.17016	0.115097403
1400.24146	0.115009747
1398.31275	0.114903299
1396.38404	0.114740777
1394.45534	0.11482865
1392.52663	0.11486048
1390.59792	0.114804605
1388.66921	0.114679643
1386.74051	0.1145546
1384.8118	0.114498865
1382.88309	0.114443184
1380.95439	0.114387557
1379.02568	0.114207031
1377.09697	0.114207031
1375.16826	0.114081996
1373.23956	0.114063513
1371.31085	0.114026563
1369.38214	0.113989637
1367.45343	0.113809293
1365.52473	0.113809293
1363.59602	0.113665803
1361.66731	0.113448778
1359.73861	0.113500404
1357.8099	0.113408724
1355.88119	0.113353787
1353.95248	0.113298903
1352.02378	0.113244072
1350.09507	0.113171046
1348.16636	0.113098115
1346.23765	0.113025278
1344.30895	0.112970711
1342.38024	0.112952534
1340.45153	0.112952534
1338.52283	0.112737215
1336.59412	0.112646633
1334.66541	0.112538128
1332.7367	0.112447867
1330.808	0.112375761
1328.87929	0.112321743
1326.95058	0.11228576
1325.02188	0.112107623
1323.09317	0.112107623
1321.16446	0.112125581
1319.23575	0.111983339
1317.30705	0.112001282
1315.37834	0.111876903
1313.44963	0.11173453
1311.52092	0.111592112
1309.59222	0.111610006
1307.66351	0.111645813
1305.7348	0.111521181
1303.8061	0.111396469
1301.87739	0.11130742
1299.94868	0.11136108
1298.01997	0.111289804
1296.09127	0.111200515
1294.16256	0.111129006
1292.23385	0.111057382
1290.30514	0.111146959
1288.37644	0.111075234
1286.44773	0.111021332
1284.51902	0.110805565
1282.59032	0.110625202
1280.66161	0.110588617
1278.7329	0.110587853
1276.80419	0.110623068
1274.87549	0.110513447
1272.94678	0.110457516
1271.01807	0.110291708
1269.08937	0.110233629
1267.16066	0.110284392
1265.23195	0.11033566
1263.30324	0.110258549
1261.37454	0.110275689
1259.44583	0.110165248
1257.51712	0.110241465
1255.58841	0.110114599
1253.65971	0.110061329
1251.731	0.109970189
1249.80229	0.109804571
1247.87359	0.109877362
1245.94488	0.109802621
1244.01617	0.109764198
1242.08746	0.109725686
1240.15876	0.109538871
1238.23005	0.109536512
1236.30134	0.109534146
1234.37263	0.10938284
1232.44393	0.109547739
1230.51522	0.109545378
1228.58651	0.109543011
1226.65781	0.109540636
1224.7291	0.109556717
1222.80039	0.109572852
1220.87168	0.10943843
1218.94298	0.109454422
1217.01427	0.109489051
1215.08556	0.10952381
1213.15686	0.109406953
1211.22815	0.109460383
1209.29944	0.109532774
1207.37073	0.109605489
1205.44203	0.109678528
1203.51332	0.1095796
1201.58461	0.109633978
1199.6559	0.109534522
1197.7272	0.109608047
1195.79849	0.109681905
1193.86978	0.109756098
1191.94108	0.109811453
1190.01237	0.10986704
1188.08366	0.109942136
1186.15495	0.109861136
1184.22625	0.110014104
1182.29754	0.11020697
1180.36883	0.110164981
1178.44012	0.110202631
1176.51142	0.110023144
1174.58271	0.110060649
1172.654	0.110296747
1170.7253	0.110374485
1168.79659	0.110652057
1166.86788	0.110550954
1164.93917	0.110469314
1163.01047	0.110568223
1161.08176	0.11082895
1159.15305	0.11092926
1157.22435	0.111050328
1155.29564	0.110989212
1153.36693	0.111131487
1151.43822	0.1112746
1149.50952	0.111439114
1147.58081	0.111604664
1145.6521	0.111627043
1143.72339	0.111835974
1141.79469	0.112025435
1139.86598	0.112340585
1137.93727	0.112469438
1136.00857	0.112410411
1134.07986	0.112582781
1132.15115	0.112777672
1130.22244	0.113016962
1128.29374	0.113279755
1126.36503	0.113374327
1124.43632	0.113662679
1122.50761	0.113781741
1120.57891	0.114118793
1118.6502	0.114285714
1116.72149	0.11447679
1114.79279	0.114692505
1112.86408	0.114933386
1110.93537	0.1152
1109.00666	0.115492958
1107.07796	0.115991903
1105.14925	0.116496945
1103.22054	0.116779348
1101.29184	0.117016893
1099.36313	0.117574001
1097.43442	0.117854916
1095.50571	0.118248175
1093.57701	0.118778754
1091.6483	0.119312225
1089.71959	0.119848612
1087.79088	0.120253165
1085.86218	0.120686005
1083.93347	0.121147715
1082.00476	0.121852326
1080.07606	0.122107969
1078.14735	0.122607012
1076.21864	0.123030434
1074.28993	0.123619831
1072.36123	0.124158889
1070.43252	0.124673629
1068.50381	0.12519084
1066.5751	0.125491911
1064.6464	0.126232742
1062.71769	0.126785322
1060.78898	0.127312775
1058.86028	0.127786361
1056.93157	0.12839779
1055.00286	0.128925254
1053.07415	0.129646018
1051.14545	0.130146082
1049.21674	0.13089701
1047.28803	0.131619765
1045.35933	0.132150776
1043.43062	0.132904371
1041.50191	0.133688652
1039.5732	0.134474328
1037.6445	0.135068981
1035.71579	0.136049878
1033.78708	0.136839759
1031.85837	0.137600357
1029.92967	0.138107988
1028.00096	0.138808302
1026.07225	0.139638635
1024.14355	0.140405616
1022.21484	0.141362422
1020.28613	0.1423171
1018.35742	0.143237841
1016.42872	0.143902439
1014.50001	0.144754316
1012.5713	0.145571018
1010.64259	0.14638448
1008.71389	0.147162341
1006.78518	0.148001757
1004.85647	0.148838229
1002.92777	0.149802891
1000.99906	0.150798862
999.07035	0.152078775
997.14164	0.152920586
995.21294	0.154081856
993.28423	0.155244143
991.35552	0.156256849
989.42682	0.15737489
987.49811	0.158531223
985.5694	0.159726812
983.64069	0.1608129
981.71199	0.161976512
979.78328	0.163256228
977.85457	0.164619165
975.92586	0.165769403
973.99716	0.167342342
972.06845	0.168851718
970.13974	0.170333409
968.21104	0.171558589
966.28233	0.172752168
964.35362	0.174141876
962.42491	0.175309775
960.49621	0.17671422
958.5675	0.178167551
956.63879	0.179944419
954.71008	0.181543468
952.78138	0.182963827
950.85267	0.184290739
948.92396	0.185673893
946.99526	0.187203791
945.06655	0.188602766
943.13784	0.189870379
941.20913	0.191293833
939.28043	0.192879785
937.35172	0.194095941
935.42301	0.195679166
933.49431	0.197041865
931.5656	0.198430777
929.63689	0.199948927
927.70818	0.201442555
925.77948	0.202857143
923.85077	0.204241948
921.92206	0.205703723
919.99335	0.207190413
918.06465	0.208490059
916.13594	0.210140998
914.20723	0.211664841
912.27853	0.213337023
910.34982	0.214605484
908.42111	0.216246816
906.4924	0.217416213
904.5637	0.21890403
902.63499	0.220428529
900.70628	0.221727516
898.77757	0.223222322
896.84887	0.224916641
894.92016	0.226339969
892.99145	0.227863777
891.06275	0.22942097
889.13404	0.230769231
887.20533	0.23182837
885.27662	0.233236152
883.34792	0.234600262
881.41921	0.235996023
879.4905	0.237600536
877.5618	0.238740264
875.63309	0.240082079
873.70438	0.241200828
871.77567	0.242434783
869.84697	0.243603225
867.91826	0.244789827
865.98955	0.246351015
864.06084	0.247400502
862.13214	0.24846515
860.20343	0.249909058
858.27472	0.251282051
856.34602	0.252212389
854.41731	0.25315516
852.4886	0.254484305
850.55989	0.255455229
848.63119	0.256720939
846.70248	0.25752381
844.77377	0.258521639
842.84506	0.259145168
840.91636	0.26006192
838.98765	0.260987942
837.05894	0.262025811
835.13024	0.262971698
833.20153	0.263532201
831.27282	0.264285714
829.34411	0.265045835
827.41541	0.265518622
825.4867	0.265700483
823.55799	0.266288952
821.62929	0.266775112
819.70058	0.26726604
817.77187	0.2679524
815.84316	0.268342951
813.91446	0.26873706
811.98575	0.268830628
810.05704	0.269456067
808.12833	0.269554247
806.19963	0.269539501
804.27092	0.269296014
802.34221	0.268821778
800.41351	0.268542199
798.4848	0.267918089
796.55609	0.268032437
794.62738	0.267491468
792.69868	0.266950959
790.76997	0.266297401
788.84126	0.265531915
786.91255	0.264880952
784.98385	0.263493413
783.05514	0.261682243
781.12643	0.26029724
779.19773	0.258803564
777.26902	0.257421544
775.34031	0.255932203
773.4116	0.253598645
771.4829	0.25147929
769.55419	0.249367089
767.62548	0.246944796
765.69678	0.244107744
763.76807	0.241799832
761.83936	0.239596469
759.91065	0.237074401
757.98195	0.233711644
756.05324	0.230963399
754.12453	0.228306655
752.19582	0.225221426
750.26712	0.222644698
748.33841	0.219212865
746.4097	0.21637675
744.481	0.21395151
742.55229	0.211177474
740.62358	0.208476027
738.69487	0.206008584
736.76617	0.203185536
734.83746	0.200431965
732.90875	0.198178664
730.98004	0.195472355
729.05134	0.192744755
727.12263	0.190517998
725.19392	0.188354654
723.26522	0.186252772
721.33651	0.184128399
719.4078	0.182511211
717.47909	0.180342651
715.55039	0.178603808
713.62168	0.176926585
711.69297	0.175768701
709.76427	0.174053555
707.83556	0.17239777
705.90685	0.170720299
703.97814	0.169491525
702.04944	0.168326221
700.12073	0.167144222
698.19202	0.165945166
696.26331	0.164728682
694.33461	0.163574219
692.4059	0.162401575
690.47719	0.161706349
688.54849	0.161
686.61978	0.1598588
684.69107	0.159368635
682.76236	0.158354756
680.83366	0.158195021
678.90495	0.157509158
676.97624	0.157338965
675.04753	0.157249467
673.11883	0.156704362
671.19012	0.156147987
669.26141	0.155579989
667.33271	0.154913937
665.404	0.154234436
663.47529	0.153541076
661.54658	0.152833429
659.61788	0.152689416
657.68917	0.151957919
655.76046	0.151891253
653.83176	0.151913876
651.90305	0.15114873
649.97434	0.150977995
648.04563	0.150710315
646.11693	0.150343107
644.18822	0.149779736
642.25951	0.149301144
640.3308	0.149454779
638.4021	0.148867314
636.47339	0.148366013
634.54468	0.147291942
632.61598	0.147058824
630.68727	0.146820027
628.75856	0.146675805
626.82985	0.145833333
624.90115	0.146375792
622.97244	0.146219686
621.04373	0.145953757
619.11502	0.144842721
617.18632	0.143491124
615.25761	0.142750374
613.3289	0.142533937
611.4002	0.142857143
609.47149	0.142419602
607.54278	0.141975309
605.61407	0.141634241
603.68537	0.142072214
601.75666	0.141838352
