4999.20917	0.322429907
4997.28046	0.320930233
4995.35176	0.320185615
4993.42305	0.319444444
4991.49434	0.321016166
4989.56564	0.320276498
4987.63693	0.31954023
4985.70822	0.318807339
4983.77951	0.320366133
4981.85081	0.319634703
4979.9221	0.32118451
4977.99339	0.320454545
4976.06468	0.319727891
4974.13598	0.321995465
4972.20727	0.321266968
4970.27856	0.31981982
4968.34986	0.319101124
4966.42115	0.320627803
4964.49244	0.319910515
4962.56373	0.319196429
4960.63503	0.318485523
4958.70632	0.32
4956.77761	0.319290466
4954.8489	0.318584071
4952.9202	0.3200883
4950.99149	0.31938326
4949.06278	0.318681319
4947.13408	0.320175439
4945.20537	0.319474836
4943.27666	0.318777293
4941.34795	0.320261438
4939.41925	0.319565217
4937.49054	0.318872017
4935.56183	0.318181818
4933.63313	0.3174946
4931.70442	0.318965517
4929.77571	0.31827957
4927.847	0.319742489
4925.9183	0.319057816
4923.98959	0.317697228
4922.06088	0.319148936
4920.13217	0.319148936
4918.20347	0.31779661
4916.27476	0.317124736
4914.34605	0.316455696
4912.41735	0.317894737
4910.48864	0.317226891
4908.55993	0.318658281
4906.63122	0.317991632
4904.70252	0.316666667
4902.77381	0.316008316
4900.8451	0.317427386
4898.91639	0.316770186
4896.98769	0.316770186
4895.05898	0.318181818
4893.13027	0.317525773
4891.20157	0.318275154
4889.27286	0.317622951
4887.34415	0.316973415
4885.41544	0.316326531
4883.48674	0.315682281
4881.55803	0.317073171
4879.62932	0.31643002
4877.70062	0.317813765
4875.77191	0.317171717
4873.8432	0.316532258
4871.91449	0.317269076
4869.98579	0.316633267
4868.05708	0.316
4866.12837	0.316733068
4864.19966	0.31610338
4862.27096	0.31547619
4860.34225	0.316831683
4858.41354	0.316205534
4856.48484	0.31496063
4854.55613	0.31496063
4852.62742	0.316306483
4850.69871	0.315068493
4848.77001	0.31640625
4846.8413	0.315789474
4844.91259	0.315175097
4842.98388	0.316504854
4841.05518	0.315891473
4839.12647	0.314671815
4837.19776	0.314065511
4835.26906	0.315384615
4833.34035	0.314779271
4831.41164	0.314176245
4829.48293	0.315487572
4827.55423	0.314285714
4825.62552	0.313688213
4823.69681	0.314990512
4821.76811	0.314393939
4819.8394	0.313799622
4817.91069	0.31509434
4815.98198	0.314500942
4814.05328	0.313320826
4812.12457	0.314606742
4810.19586	0.314018692
4808.26715	0.312849162
4806.33845	0.314126394
4804.40974	0.313543599
4802.48103	0.312962963
4800.55233	0.312384473
4798.62362	0.313653137
4796.69491	0.3125
4794.7662	0.313761468
4792.8375	0.313186813
4790.90879	0.314442413
4788.98008	0.313868613
4787.05137	0.314545455
4785.12267	0.313974592
4783.19396	0.313405797
4781.26525	0.31283906
4779.33655	0.313513514
4777.40784	0.31294964
4775.47913	0.312387792
4773.55042	0.311270125
4771.62172	0.3125
4769.69301	0.311942959
4767.7643	0.3113879
4765.8356	0.312056738
4763.90689	0.311504425
4761.97818	0.312720848
4760.04947	0.312169312
4758.12077	0.312829525
4756.19206	0.312280702
4754.26335	0.3117338
4752.33464	0.310645724
4750.40594	0.31010453
4748.47723	0.311304348
4746.54852	0.311958406
4744.61982	0.311418685
4742.69111	0.310880829
4740.7624	0.312068966
4738.83369	0.310996564
4736.90499	0.311643836
4734.97628	0.311111111
4733.04757	0.310580205
4731.11886	0.311754685
4729.19016	0.310696095
4727.26145	0.310169492
4725.33274	0.30964467
4723.40404	0.310810811
4721.47533	0.310286678
4719.54662	0.31092437
4717.61791	0.310402685
4715.68921	0.309882747
4713.7605	0.311036789
4711.83179	0.31
4709.90308	0.311148087
4707.97438	0.310116086
4706.04567	0.311258278
4704.11696	0.310231023
4702.18826	0.309719934
4700.25955	0.309210526
4698.33084	0.310344828
4696.40213	0.309328969
4694.47343	0.30995106
4692.54472	0.309446254
4690.61601	0.310569106
4688.68731	0.309562399
4686.7586	0.309061489
4684.82989	0.308562197
4682.90118	0.309178744
4680.97248	0.308681672
4679.04377	0.307692308
4677.11506	0.3088
4675.18635	0.308306709
4673.25765	0.307324841
4671.32894	0.308426073
4669.40023	0.307448494
4667.47153	0.308544304
4665.54282	0.308056872
4663.61411	0.307570978
4661.6854	0.308176101
4659.7567	0.307210031
4657.82799	0.30829421
4655.89928	0.3078125
4653.97057	0.308892356
4652.04187	0.307931571
4650.11316	0.306976744
4648.18445	0.306501548
4646.25575	0.307573416
4644.32704	0.306625578
4642.39833	0.307692308
4640.46962	0.306748466
4638.54092	0.307810107
4636.61221	0.306870229
4634.6835	0.306402439
4632.7548	0.305936073
4630.82609	0.306525038
4628.89738	0.306060606
4626.96867	0.307110439
4625.03997	0.306184012
4623.11126	0.307228916
4621.18255	0.306306306
4619.25384	0.306886228
4617.32514	0.306427504
4615.39643	0.305514158
4613.46772	0.306547619
4611.53902	0.305637982
4609.61031	0.305185185
4607.6816	0.305760709
4605.75289	0.304860088
4603.82419	0.305882353
4601.89548	0.305433186
4599.96677	0.306002928
4598.03806	0.305555556
4596.10936	0.305109489
4594.18065	0.305676856
4592.25194	0.305232558
4590.32324	0.305797101
4588.39453	0.304913295
4586.46582	0.305916306
4584.53711	0.305035971
4582.60841	0.304597701
4580.6797	0.305157593
4578.75099	0.30472103
4576.82229	0.305714286
4574.89358	0.304843305
4572.96487	0.303977273
4571.03616	0.303546099
4569.10746	0.304101839
4567.17875	0.303672316
4565.25004	0.304225352
4563.32133	0.303797468
4561.39263	0.302945302
4559.46392	0.303496503
4557.53521	0.303072626
4555.60651	0.30362117
4553.6778	0.304589708
4551.74909	0.304166667
4549.82038	0.304709141
4547.89168	0.303867403
4545.96297	0.303448276
4544.03426	0.303988996
4542.10555	0.303571429
4540.17685	0.302739726
4538.24814	0.303278689
4536.31943	0.302864939
4534.39073	0.303401361
4532.46202	0.30298913
4530.53331	0.303523035
4528.6046	0.302702703
4526.6759	0.303643725
4524.74719	0.30282638
4522.81848	0.302419355
4520.88978	0.301608579
4518.96107	0.302139037
4517.03236	0.301735648
4515.10365	0.302666667
4513.17495	0.301861702
4511.24624	0.301460823
4509.31753	0.301986755
4507.38882	0.302509908
4505.46012	0.30171278
4503.53141	0.300919842
4501.6027	0.30183727
4499.674	0.30104712
4497.74529	0.300653595
4495.81658	0.301173403
4493.88787	0.30078125
4491.95917	0.301298701
4490.03046	0.300518135
4488.10175	0.301033592
4486.17304	0.300645161
4484.24434	0.301158301
4482.31563	0.302056555
4480.38692	0.301282051
4478.45822	0.302176697
4476.52951	0.301404853
4474.6008	0.300636943
4472.67209	0.301143583
4470.74339	0.300761421
4468.81468	0.301265823
4466.88597	0.300505051
4464.95727	0.300126103
4463.02856	0.300628931
4461.09985	0.299874529
4459.17114	0.300375469
4457.24244	0.30125
4455.31373	0.300498753
4453.38502	0.299751244
4451.45631	0.300621118
4449.52761	0.299876084
4447.5989	0.299134734
4445.67019	0.3
4443.74149	0.299261084
4441.81278	0.298525799
4439.88407	0.299386503
4437.95536	0.298653611
4436.02666	0.297924298
4434.09795	0.298780488
4432.16924	0.299270073
4430.24053	0.298543689
4428.31183	0.299031477
4426.38312	0.298669891
4424.45441	0.297949337
4422.52571	0.29843562
4420.597	0.297719088
4418.66829	0.298203593
4416.73958	0.299043062
4414.81088	0.298329356
4412.88217	0.298809524
4410.95346	0.298099762
4409.02476	0.297746145
4407.09605	0.298224852
4405.16734	0.297520661
4403.23863	0.297997644
4401.30993	0.297297297
4399.38122	0.296600234
4397.45251	0.297076023
4395.5238	0.296728972
4393.5951	0.297202797
4391.66639	0.298020955
4389.73768	0.297328688
4387.80898	0.296639629
4385.88027	0.297453704
4383.95156	0.296766744
4382.02285	0.297235023
4380.09415	0.296551724
4378.16544	0.297018349
4376.23673	0.296338673
4374.30802	0.2956621
4372.37932	0.296465222
4370.45061	0.296928328
4368.5219	0.296254257
4366.5932	0.296715742
4364.66449	0.296045198
4362.73578	0.296505073
4360.80707	0.29583802
4358.87837	0.296296296
4356.94966	0.295632699
4355.02095	0.296089385
4353.09225	0.295758929
4351.16354	0.295100223
4349.23483	0.295555556
4347.30612	0.296008869
4345.37742	0.295353982
4343.44871	0.29580574
4341.52	0.295154185
4339.59129	0.295929593
4337.66259	0.295279912
4335.73388	0.294633078
4333.80517	0.295081967
4331.87647	0.294438386
4329.94776	0.294885745
4328.01905	0.294565217
4326.09034	0.293926247
4324.16164	0.294372294
4322.23293	0.293419633
4320.30422	0.294181034
4318.37551	0.294623656
4316.44681	0.293991416
4314.5181	0.294432548
4312.58939	0.293803419
4310.66069	0.293176972
4308.73198	0.293617021
4306.80327	0.294367694
4304.87456	0.293743372
4302.94586	0.294179894
4301.01715	0.293558606
4299.08844	0.293993678
4297.15974	0.293375394
4295.23103	0.293809024
4293.30232	0.293193717
4291.37361	0.293625914
4289.44491	0.294056309
4287.5162	0.293444329
4285.58749	0.293873313
4283.65878	0.293264249
4281.73008	0.292657704
4279.80137	0.293085655
4277.87266	0.293511843
4275.94396	0.29290853
4274.01525	0.292307692
4272.08654	0.292732856
4270.15783	0.292134831
4268.22913	0.292558614
4266.30042	0.291963377
4264.37171	0.292682927
4262.443	0.293103448
4260.5143	0.292510121
4258.58559	0.292929293
4256.65688	0.29233871
4254.72818	0.291750503
4252.79947	0.292168675
4250.87076	0.291583166
4248.94205	0.291708292
4247.01335	0.292123629
4245.08464	0.292537313
4243.15593	0.291956306
4241.22723	0.292368682
4239.29852	0.291790307
4237.36981	0.291214215
4235.4411	0.290640394
4233.5124	0.291052114
4231.58369	0.291462218
4229.65498	0.290891283
4227.72627	0.291300098
4225.79757	0.291707317
4223.86886	0.29211295
4221.94015	0.29154519
4220.01145	0.290979631
4218.08274	0.291384318
4216.15403	0.290821256
4214.22532	0.290260366
4212.29662	0.290384615
4210.36791	0.289827255
4208.4392	0.290229885
4206.51049	0.290630975
4204.58179	0.291030534
4202.65308	0.29047619
4200.72437	0.289923954
4198.79567	0.290322581
4196.86696	0.289772727
4194.93825	0.289896128
4193.00954	0.290292177
4191.08084	0.289746002
4189.15213	0.290140845
4187.22342	0.290534208
4185.29472	0.289990645
4183.36601	0.289449113
4181.4373	0.289841566
4179.50859	0.289302326
4177.57989	0.289424861
4175.65118	0.288888889
4173.72247	0.289279113
4171.79376	0.288745387
4169.86506	0.288868445
4167.93635	0.289256198
4166.00764	0.288990826
4164.07894	0.289377289
4162.15023	0.288584475
4160.22152	0.288969918
4158.29281	0.289353958
4156.36411	0.288828338
4154.4354	0.288304624
4152.50669	0.288426763
4150.57798	0.287906137
4148.64928	0.288288288
4146.72057	0.287769784
4144.79186	0.287892377
4142.86316	0.288272158
4140.93445	0.287756926
4139.00574	0.288135593
4137.07703	0.28762244
4135.14833	0.288
4133.21962	0.287234043
4131.29091	0.287610619
4129.36221	0.287102473
4127.4335	0.28722467
4125.50479	0.287598945
4123.57608	0.287093942
4121.64738	0.287467134
4119.71867	0.28783902
4117.78996	0.287336245
4115.86125	0.287456446
4113.93255	0.286956522
4112.00384	0.287326389
4110.07513	0.286828423
4108.14643	0.287197232
4106.21772	0.287316652
4104.28901	0.286574871
4102.3603	0.286941581
4100.4316	0.287307033
4098.50289	0.286815068
4096.57418	0.286324786
4094.64547	0.28668942
4092.71677	0.287052811
4090.78806	0.286321155
4088.85935	0.28668363
4086.93065	0.285956007
4085.00194	0.286317568
4083.07323	0.285834739
4081.14452	0.285954584
4079.21582	0.285474391
4077.28711	0.28559464
4075.3584	0.285953177
4073.4297	0.285475793
4071.50099	0.285595337
4069.57228	0.285120532
4067.64357	0.285477178
4065.71487	0.285832643
4063.78616	0.285359801
4061.85745	0.285714286
4059.92874	0.285008237
4058.00004	0.285361842
4056.07133	0.285479902
4054.14262	0.285012285
4052.21392	0.285130719
4050.28521	0.284665579
4048.3565	0.285016287
4046.42779	0.285134037
4044.49909	0.284671533
4042.57038	0.284789644
4040.64167	0.284329564
4038.71296	0.284677419
4036.78426	0.283990346
4034.85555	0.284337349
4032.92684	0.28468324
4030.99814	0.2848
4029.06943	0.284345048
4027.14072	0.284688995
4025.21201	0.284009547
4023.28331	0.284352661
4021.3546	0.283901665
4019.42589	0.284018987
4017.49719	0.28436019
4015.56848	0.283687943
4013.63977	0.283018868
4011.71106	0.283359498
4009.78236	0.283476899
4007.85365	0.28303362
4005.92494	0.283151326
4003.99623	0.283489097
4002.06753	0.283825816
4000.13882	0.283165244
3998.21011	0.282726569
3996.28141	0.283062645
3994.3527	0.283397683
3992.42399	0.282742681
3990.49528	0.282859339
3988.56658	0.283192632
3986.63787	0.282542113
3984.70916	0.282874618
3982.78045	0.282990084
3980.85175	0.282559025
3978.92304	0.282889734
3976.99433	0.283004552
3975.06563	0.282575758
3973.13692	0.282690854
3971.20821	0.282051282
3969.2795	0.282379518
3967.3508	0.282494365
3965.42209	0.282070518
3963.49338	0.282397004
3961.56468	0.281763827
3959.63597	0.281879195
3957.70726	0.282204021
3955.77855	0.282317979
3953.84985	0.28189911
3951.92114	0.282222222
3949.99243	0.281596452
3948.06372	0.281918819
3946.13502	0.281296024
3944.20631	0.281617647
3942.2776	0.281731475
3940.3489	0.281844802
3938.42019	0.281227173
3936.49148	0.281546317
3934.56277	0.281136198
3932.63407	0.281454545
3930.70536	0.2808418
3928.77665	0.280955829
3926.84794	0.280346821
3924.91924	0.280461428
3922.99053	0.280777538
3921.06182	0.280373832
3919.13312	0.28068916
3917.20441	0.281003584
3915.2757	0.280914939
3913.34699	0.281027104
3911.41829	0.28113879
3909.48958	0.280539773
3907.56087	0.280340667
3905.63217	0.280141844
3903.70346	0.279943303
3901.77475	0.280056577
3899.84604	0.280169372
3897.91734	0.279887482
3895.98863	0.28
3894.05992	0.280308339
3892.13121	0.279916025
3890.20251	0.280027933
3888.2738	0.279637378
3886.34509	0.279247911
3884.41639	0.279360667
3882.48768	0.279472954
3880.55897	0.279584775
3878.63026	0.278812974
3876.70156	0.27892562
3874.77285	0.279229711
3872.84414	0.279037801
3870.91543	0.278846154
3868.98673	0.278767123
3867.05802	0.278879016
3865.12931	0.27899045
3863.20061	0.27910143
3861.2719	0.279022403
3859.34319	0.279132791
3857.41448	0.278455285
3855.48578	0.278343517
3853.55707	0.278154681
3851.62836	0.278190412
3849.69966	0.278710544
3847.77095	0.278633624
3845.84224	0.278074866
3843.91353	0.278371162
3841.98483	0.278185457
3840.05612	0.278
3838.12741	0.278295606
3836.1987	0.278220452
3834.27	0.278145695
3832.34129	0.278071334
3830.41258	0.27818062
3828.48388	0.278106509
3826.55517	0.2777413
3824.62646	0.278032787
3822.69775	0.27785059
3820.76905	0.277486911
3818.84034	0.277596342
3816.91163	0.277705346
3814.98292	0.27763329
3813.05422	0.277849741
3811.12551	0.277957337
3809.1968	0.277777778
3807.2681	0.277419355
3805.33939	0.277706186
3803.41068	0.277348777
3801.48197	0.277634961
3799.55327	0.277564103
3797.62456	0.277316294
3795.69585	0.277246654
3793.76715	0.277177368
3791.83844	0.277284264
3789.90973	0.277390754
3787.98102	0.277496839
3786.05232	0.277146465
3784.12361	0.277252678
3782.1949	0.276903713
3780.26619	0.27701005
3778.33749	0.276489028
3776.40878	0.277048155
3774.48007	0.276529338
3772.55137	0.276184539
3770.62266	0.276463263
3768.69395	0.276119403
3766.76524	0.276674938
3764.83654	0.276780186
3762.90783	0.276266996
3760.97912	0.27654321
3759.05041	0.276032039
3757.12171	0.276137761
3755.193	0.275968039
3753.26429	0.276137761
3751.33559	0.275968039
3749.40688	0.275460123
3747.47817	0.275735294
3745.54946	0.275566442
3743.62076	0.275777913
3741.69205	0.275652702
3739.76334	0.275590551
3737.83464	0.275590551
3735.90593	0.275423729
3733.97722	0.275362319
3732.04851	0.274969916
3730.11981	0.275344931
3728.1911	0.275449102
3726.26239	0.275119617
3724.33368	0.275223881
3722.40498	0.275163788
3720.47627	0.275267539
3718.54756	0.275207592
3716.61886	0.275310835
3714.69015	0.275147929
3712.76144	0.274985216
3710.83273	0.275088548
3708.90403	0.274867569
3706.97532	0.274647887
3705.04661	0.274751025
3703.1179	0.275014628
3701.1892	0.27453271
3699.26049	0.274475524
3697.33178	0.274578243
3695.40308	0.274680604
3693.47437	0.274521184
3691.54566	0.274521184
3689.61695	0.274361949
3687.68825	0.274725275
3685.75954	0.274927954
3683.83083	0.274295572
3681.90213	0.273980471
3679.97342	0.273823192
3678.04471	0.273823192
3676.116	0.273823192
3674.1873	0.273768614
3672.25859	0.273870783
3670.32988	0.273972603
3668.40117	0.274175199
3666.47247	0.273964833
3664.54376	0.273910583
3662.61505	0.274011299
3660.68635	0.273702032
3658.75764	0.274111675
3656.82893	0.273957159
3654.90022	0.273494654
3652.97152	0.273340832
3651.04281	0.272931908
3649.1141	0.272778403
3647.18539	0.273135165
3645.25669	0.273184358
3643.32798	0.273132664
3641.39927	0.273233166
3639.47057	0.273333333
3637.54186	0.273029967
3635.61315	0.272727273
3633.68444	0.273130194
3631.75574	0.272727273
3629.82703	0.272727273
3627.89832	0.272676991
3625.96961	0.272326351
3624.04091	0.272277228
3622.1122	0.272277228
3620.18349	0.272277228
3618.25479	0.272377814
3616.32608	0.272627537
3614.39737	0.272179628
3612.46866	0.272577997
3610.53996	0.272279934
3608.61125	0.272379913
3606.68254	0.272331155
3604.75384	0.272282609
3602.82513	0.271839392
3600.89642	0.272234273
3598.96771	0.271939328
3597.03901	0.27203894
3595.1103	0.271745003
3593.18159	0.27184466
3591.25288	0.271551724
3589.32418	0.271551724
3587.39547	0.271259419
3585.46676	0.271213749
3583.53806	0.271168274
3581.60935	0.271268058
3579.68064	0.271367521
3577.75193	0.271077908
3575.82323	0.271321962
3573.89452	0.271420969
3571.96581	0.271276596
3570.0371	0.271276596
3568.1084	0.271132376
3566.17969	0.270700637
3564.25098	0.271186441
3562.32228	0.271285034
3560.39357	0.270855333
3558.46486	0.271097046
3556.53615	0.27081138
3554.60745	0.271052632
3552.67874	0.270767613
3550.75003	0.271008403
3548.82133	0.270724029
3546.89262	0.270964361
3544.96391	0.270538985
3543.0352	0.270778881
3541.1065	0.270354906
3539.17779	0.270594369
3537.24908	0.2703125
3535.32037	0.270551509
3533.39167	0.270649351
3531.46296	0.270368448
3529.53425	0.270088129
3527.60555	0.269948187
3525.67684	0.270186335
3523.74813	0.270423992
3521.81942	0.270144628
3519.89072	0.270242393
3517.96201	0.270339856
3516.0333	0.270061728
3514.10459	0.270298047
3512.17589	0.270020534
3510.24718	0.270117888
3508.31847	0.26984127
3506.38977	0.26993865
3504.46106	0.269662921
3502.53235	0.269897959
3500.60364	0.269485481
3498.67494	0.269720102
3496.74623	0.269817073
3494.81752	0.269543147
3492.88882	0.269776876
3490.96011	0.269503546
3489.0314	0.269736842
3487.10269	0.269327943
3485.17399	0.269560828
3483.24528	0.269153226
3481.31657	0.2693857
3479.38786	0.269482152
3477.45916	0.269578313
3475.53045	0.269307924
3473.60174	0.269404106
3471.67304	0.2695
3469.74433	0.26973027
3467.81562	0.269326683
3465.88691	0.269422311
3463.95821	0.269020388
3462.0295	0.269116187
3460.10079	0.269345238
3458.17208	0.268945022
3456.24338	0.269040554
3454.31467	0.268774704
3452.38596	0.268870252
3450.45726	0.269098078
3448.52855	0.268700787
3446.59984	0.268796069
3444.67113	0.268400393
3442.74243	0.268495835
3440.81372	0.268590998
3438.88501	0.268197362
3436.95631	0.268292683
3435.0276	0.268387725
3433.09889	0.26848249
3431.17018	0.268446602
3429.24148	0.268410853
3427.31277	0.26850508
3425.38406	0.268469338
3423.45535	0.268563163
3421.52665	0.268656716
3419.59794	0.268269231
3417.66923	0.268234165
3415.74053	0.268327743
3413.81182	0.268292683
3411.88311	0.268385864
3409.9544	0.268129771
3408.0257	0.268222963
3406.09699	0.267840152
3404.16828	0.267933492
3402.23957	0.268026565
3400.31087	0.267992424
3398.38216	0.267958412
3396.45345	0.267924528
3394.52475	0.267890772
3392.59604	0.267857143
3390.66733	0.26782364
3388.73862	0.267790262
3386.80992	0.267882188
3384.88121	0.26784881
3382.9525	0.267940354
3381.0238	0.267906977
3379.09509	0.267998142
3377.16638	0.267964766
3375.23767	0.268055556
3373.30897	0.268022181
3371.38026	0.267651131
3369.45155	0.267618609
3367.52284	0.267709292
3365.59414	0.267799724
3363.66543	0.267767079
3361.73672	0.267734554
3359.80802	0.267824497
3357.87931	0.267791971
3355.9506	0.267881549
3354.02189	0.267849022
3352.09319	0.267484105
3350.16448	0.267452403
3348.23577	0.267541874
3346.30706	0.267631103
3344.37836	0.267599278
3342.44965	0.267237494
3340.52094	0.267206478
3338.59224	0.267175573
3336.66353	0.267264574
3334.73482	0.267233662
3332.80611	0.267322307
3330.87741	0.267291388
3328.9487	0.267260579
3327.01999	0.266903915
3325.09129	0.26731794
3323.16258	0.267405765
3321.23387	0.266932271
3319.30516	0.266902342
3317.37646	0.266990291
3315.44775	0.266960352
3313.51904	0.266930519
3311.59033	0.26690079
3309.66163	0.266871166
3307.73292	0.266958425
3305.80421	0.26692879
3303.87551	0.266899259
3301.9468	0.26686983
3300.01809	0.266956522
3298.08938	0.266927083
3296.16068	0.266897747
3294.23197	0.266868512
3292.30326	0.266839378
3290.37455	0.266810345
3288.44585	0.266781411
3286.51714	0.266867211
3284.58843	0.266723842
3282.65973	0.266695205
3280.73102	0.266666667
3278.80231	0.266638225
3276.8736	0.266609881
3274.9449	0.266695023
3273.01619	0.266666667
3271.08748	0.266525424
3269.15878	0.266497462
3267.23007	0.266469595
3265.30136	0.266441821
3263.37265	0.266414141
3261.44395	0.266806723
3259.51524	0.266470835
3257.58653	0.266443234
3255.65782	0.266415726
3253.72912	0.266388309
3251.80041	0.266360984
3249.8717	0.265917603
3247.943	0.266306606
3246.01429	0.266279552
3244.08558	0.266252588
3242.15687	0.265812319
3240.22817	0.265786215
3238.29946	0.266172229
3236.37075	0.265843621
3234.44204	0.266228431
3232.51334	0.266092661
3230.58463	0.266066312
3228.65592	0.266448713
3226.72722	0.266013872
3224.79851	0.26598778
3222.8698	0.265555104
3220.94109	0.265529842
3219.01239	0.265504662
3217.08368	0.265884257
3215.15497	0.265858586
3213.22627	0.265832997
3211.29756	0.26621023
3209.36885	0.26607717
3207.44014	0.26565008
3205.51144	0.265625
3203.58273	0.2656
3201.65402	0.26557508
3199.72531	0.265550239
3197.79661	0.265525478
3195.8679	0.265500795
3193.93919	0.265767553
3192.01049	0.265346535
3190.08178	0.265717675
3188.15307	0.265588003
3186.22436	0.265563436
3184.29566	0.265538946
3182.36695	0.265514533
3180.43824	0.265882353
3178.50953	0.265857478
3176.58083	0.2657288
3174.65212	0.265704253
3172.72341	0.265576324
3170.79471	0.2655521
3168.866	0.26552795
3166.93729	0.265503876
3165.00858	0.265479876
3163.07988	0.265353418
3161.15117	0.265329734
3159.22246	0.265306122
3157.29376	0.265667051
3155.36505	0.265642994
3153.43634	0.265517241
3151.50763	0.265493497
3149.57893	0.265469824
3147.65022	0.265446224
3145.72151	0.26532166
3143.7928	0.265298366
3141.8641	0.265174507
3139.93539	0.265051117
3138.00668	0.265028355
3136.07798	0.265005663
3134.14927	0.265259985
3132.22056	0.26523702
3130.29185	0.265214125
3128.36315	0.265191298
3126.43444	0.265168539
3124.50573	0.265046729
3122.57702	0.265024263
3120.64832	0.26490313
3118.71961	0.264880952
3116.7909	0.264858841
3114.8622	0.264738598
3112.93349	0.264716772
3111.00478	0.264966741
3109.07607	0.265313653
3107.14737	0.26519337
3105.21866	0.265073529
3103.28995	0.265051395
3101.36125	0.265029326
3099.43254	0.265007321
3097.50383	0.264888564
3095.57512	0.264770241
3093.64642	0.265112891
3091.71771	0.264994547
3089.789	0.264972777
3087.86029	0.264855072
3085.93159	0.264833575
3084.00288	0.264716504
3082.07417	0.264695276
3080.14547	0.264578834
3078.21676	0.26446281
3076.28805	0.264442052
3074.35934	0.264779649
3072.43064	0.264663805
3070.50193	0.264642857
3068.57322	0.264621969
3066.64451	0.264506942
3064.71581	0.264486314
3062.7871	0.264726757
3060.85839	0.264612115
3058.92969	0.26459144
3057.00098	0.264924055
3055.07227	0.264809591
3053.14356	0.264788732
3051.21486	0.264674868
3049.28615	0.264654265
3047.35744	0.264633719
3045.42874	0.264520644
3043.50003	0.264500349
3041.57132	0.264387862
3039.64261	0.264716127
3037.71391	0.264695652
3035.7852	0.264675234
3033.85649	0.265001734
3031.92778	0.264542936
3029.99908	0.264522822
3028.07037	0.264502762
3026.14166	0.264391589
3024.21296	0.264371773
3022.28425	0.264352011
3020.35554	0.264332303
3018.42683	0.26431265
3016.49813	0.264635399
3014.56942	0.264273504
3012.64071	0.264344262
3010.712	0.264324693
3008.7833	0.264305177
3006.85459	0.264375638
3004.92588	0.264356099
3002.99718	0.264336614
3001.06847	0.26440678
2999.13976	0.264476803
2997.21105	0.264546685
2995.28235	0.264367816
2993.35364	0.264189189
2991.42493	0.264348413
2989.49623	0.26417004
2987.56752	0.264418212
2985.63881	0.264329063
2983.7101	0.264329063
2981.7814	0.264418212
2979.85269	0.264507422
2977.92398	0.264348413
2975.99527	0.264367816
2974.06657	0.264476803
2972.13786	0.264336614
2970.20915	0.26471589
2968.28045	0.264665757
2966.35174	0.264434575
2964.42303	0.264615385
2962.49432	0.264434575
2960.56562	0.264485344
2958.63691	0.264356099
2956.7082	0.264387271
2954.77949	0.264418212
2952.85079	0.264448925
2950.92208	0.264233088
2948.99337	0.264195057
2947.06467	0.264421474
2945.13596	0.264402264
2943.20725	0.26422629
2941.27854	0.26422629
2939.34984	0.264314248
2937.42113	0.264402264
2935.49242	0.264402264
2933.56372	0.264402264
2931.63501	0.26422629
2929.7063	0.264295213
2927.77759	0.264276228
2925.84889	0.264169705
2923.92018	0.264219577
2921.99147	0.264182058
2920.06276	0.264299803
2918.13406	0.264089122
2916.20535	0.264120144
2914.27664	0.264236902
2912.34794	0.264114212
2910.41923	0.264401294
2908.49052	0.264364106
2906.56181	0.264090177
2904.63311	0.264138817
2902.7044	0.264187239
2900.77569	0.264235445
2898.84698	0.264283434
2896.91828	0.26433121
2894.98957	0.26406101
2893.06086	0.264109068
2891.13216	0.263924051
2889.20345	0.264139021
2887.27474	0.264037855
2885.34603	0.264335224
2883.41733	0.264317181
2881.48862	0.264150943
2879.55991	0.264299183
2877.63121	0.264133166
2875.7025	0.264198306
2873.77379	0.264180508
2871.84508	0.264475743
2869.91638	0.264375
2867.98767	0.264274571
2866.05896	0.264174455
2864.13025	0.264156814
2862.20155	0.264139217
2860.27284	0.264121664
2858.34413	0.264186047
2856.41543	0.264086687
2854.48672	0.263987635
2852.55801	0.264034547
2850.6293	0.264
2848.7006	0.264110429
2846.77189	0.263914373
2844.84318	0.26402439
2842.91447	0.264214047
2840.98577	0.264179557
2839.05706	0.264145234
2837.12835	0.264190821
2835.19965	0.264014467
2833.27094	0.264139591
2831.34223	0.264264264
2829.41352	0.264167916
2827.48482	0.263992817
2825.55611	0.264196055
2823.6274	0.264100269
2821.6987	0.264004768
2819.76999	0.264207081
2817.84128	0.264190193
2815.91257	0.26431326
2813.98387	0.264218009
2812.05516	0.264201183
2810.12645	0.264106352
2808.19774	0.264384774
2806.26904	0.264367816
2804.34033	0.264273102
2802.41162	0.264178666
2800.48292	0.264084507
2798.55421	0.264067995
2796.6255	0.264344262
2794.69679	0.264250219
2792.76809	0.264156451
2790.83938	0.264062955
2788.91067	0.2643377
2786.98196	0.264244186
2785.05326	0.264150943
2783.12455	0.264057971
2781.19584	0.264041691
2779.26714	0.263949118
2777.33843	0.264145497
2775.40972	0.264129181
2773.48101	0.264400922
2771.55231	0.264308312
2769.6236	0.26429187
2767.69489	0.264199656
2765.76619	0.264183381
2763.83748	0.264091559
2761.90877	0.264361246
2759.98006	0.264344847
2758.05136	0.264253136
2756.12265	0.264236902
2754.19394	0.264220705
2752.26523	0.264413519
2750.33653	0.264397163
2748.40782	0.264380844
2746.47911	0.264289757
2744.55041	0.264198926
2742.6217	0.264182896
2740.69299	0.26444883
2738.76428	0.264432554
2736.83558	0.264341957
2734.90687	0.264325843
2732.97816	0.264309764
2731.04945	0.264219669
2729.12075	0.26420375
2727.19204	0.264393516
2725.26333	0.264303656
2723.33463	0.264287706
2721.40592	0.264476615
2719.47721	0.264460512
2717.5485	0.264444444
2715.6198	0.264355062
2713.69109	0.264265928
2711.76238	0.264250138
2709.83368	0.264161371
2707.90497	0.26442175
2705.97626	0.264405845
2704.04755	0.264389975
2702.11885	0.26430143
2700.19014	0.264213128
2698.26143	0.264471879
2696.33272	0.264383562
2694.40402	0.264367816
2692.47531	0.264625478
2690.5466	0.264609503
2688.6179	0.264521407
2686.68919	0.264505584
2684.76048	0.264489796
2682.83177	0.264402174
2680.90307	0.26465798
2678.97436	0.264570344
2677.04565	0.264554563
2675.11694	0.264538815
2673.18824	0.264451648
2671.25953	0.26443605
2669.33082	0.264690027
2667.40212	0.264602961
2665.47341	0.264587255
2663.5447	0.264500537
2661.61599	0.264484979
2659.68729	0.264398607
2657.75858	0.264383195
2655.82987	0.264564404
2653.90117	0.264548852
2651.97246	0.26446281
2650.04375	0.264376997
2648.11504	0.26462766
2646.18634	0.264612115
2644.25763	0.264596603
2642.32892	0.264510999
2640.40021	0.264760392
2638.47151	0.264674775
2636.5428	0.264923402
2634.61409	0.264837774
2632.68539	0.264822134
2630.75668	0.264806528
2628.82797	0.264721346
2626.89926	0.264705882
2624.97056	0.264621033
2623.04185	0.264867697
2621.11314	0.264852133
2619.18443	0.264836601
2617.25573	0.264751958
2615.32702	0.264928292
2613.39831	0.26484375
2611.46961	0.264828304
2609.5409	0.264744089
2607.61219	0.264728783
2605.68348	0.264644894
2603.75478	0.264888659
2601.82607	0.264873254
2599.89736	0.264857881
2597.96865	0.264774194
2596.03995	0.264758958
2594.11124	0.265001288
2592.18253	0.264917695
2590.25383	0.264834318
2588.32512	0.265007696
2586.39641	0.264992312
2584.4677	0.264909137
2582.539	0.265149578
2580.61029	0.2651341
2578.68158	0.26505102
2576.75288	0.26522293
2574.82417	0.265207432
2572.89546	0.265124555
2570.96675	0.265109192
2569.03805	0.265280243
2567.10934	0.265264758
2565.18063	0.265182186
2563.25192	0.265099823
2561.32322	0.265017668
2559.39451	0.265002521
2557.4658	0.264987406
2555.5371	0.265223956
2553.60839	0.265141995
2551.67968	0.265126789
2549.75097	0.265295888
2547.82227	0.265280561
2545.89356	0.265198899
2543.96485	0.265433642
2542.03614	0.265351972
2540.10744	0.265270506
2538.17873	0.265255293
2536.25002	0.265174129
2534.32132	0.265407555
2532.39261	0.265326384
2530.4639	0.265493307
2528.53519	0.265477959
2526.60649	0.265462642
2524.67778	0.265381764
2522.74907	0.265366576
2520.82037	0.265532544
2518.89166	0.265451859
2516.96295	0.265682657
2515.03424	0.265601966
2513.10554	0.265521472
2511.17683	0.265506252
2509.24812	0.265735978
2507.31941	0.265655577
2505.39071	0.265575373
2503.462	0.265495364
2501.53329	0.265480254
2499.60459	0.265644022
2497.67588	0.265564202
2495.74717	0.265549077
2493.81846	0.265776699
2491.88976	0.265939394
2489.96105	0.265923953
2488.03234	0.265844219
2486.10363	0.265764677
2484.17493	0.265749457
2482.24622	0.265670203
2480.31751	0.265831929
2478.38881	0.265816695
2476.4601	0.265977895
2474.53139	0.265962554
2472.60268	0.265883481
2470.67398	0.265804598
2468.74527	0.266028708
2466.81656	0.265949821
2464.88786	0.265871122
2462.95915	0.266094421
2461.03044	0.266015718
2459.10173	0.265937203
2457.17303	0.265858874
2455.24432	0.266018035
2453.31561	0.266002845
2451.3869	0.265987684
2449.4582	0.266146203
2447.52949	0.266130938
2445.60078	0.26605288
2443.67208	0.266148043
2441.74337	0.266368347
2439.81466	0.266290285
2437.88595	0.266274971
2435.95725	0.266197183
2434.02854	0.266354045
2432.09983	0.266338721
2430.17112	0.266261114
2428.24242	0.266417387
2426.31371	0.266339869
2424.385	0.266495687
2422.4563	0.266418258
2420.52759	0.266402978
2418.59888	0.266558215
2416.67017	0.266480966
2414.74147	0.266635752
2412.81276	0.266558592
2410.88405	0.26648161
2408.95535	0.266697481
2407.02664	0.266620499
2405.09793	0.266543694
2403.16922	0.266467066
2401.24052	0.266620658
2399.31181	0.266544118
2397.3831	0.266758494
2395.45439	0.266681954
2393.52569	0.266605589
2391.59698	0.266819222
2389.66827	0.266742857
2387.73957	0.266834056
2385.81086	0.266985864
2383.88215	0.266909588
2381.95344	0.267121729
2380.02474	0.267045455
2378.09603	0.267257039
2376.16732	0.267180767
2374.23861	0.267104667
2372.30991	0.267089181
2370.3812	0.267013339
2368.45249	0.266937669
2366.52379	0.267148014
2364.59508	0.267072346
2362.66637	0.266996848
2360.73766	0.267146391
2358.80896	0.267070979
2356.88025	0.267160162
2354.95154	0.267308985
2353.02284	0.267397628
2351.09413	0.267322307
2349.16542	0.267247153
2347.23671	0.267454829
2345.30801	0.267379679
2343.3793	0.267586821
2341.45059	0.267511674
2339.52188	0.267496112
2337.59318	0.267643142
2335.66447	0.267568167
2333.73576	0.267493357
2331.80706	0.267639903
2329.87835	0.267506075
2327.94964	0.267652251
2326.02093	0.267798104
2324.09223	0.267943637
2322.16352	0.267810026
2320.23481	0.267735559
2318.3061	0.267880649
2316.3774	0.267806268
2314.44869	0.267950963
2312.51998	0.267876667
2310.59128	0.267744049
2308.66257	0.267888307
2306.73386	0.267872711
2304.80515	0.267798824
2302.87645	0.267942584
2300.94774	0.267868781
2299.01903	0.267795139
2297.09033	0.267721656
2295.16162	0.267864877
2293.23291	0.268065772
2291.3042	0.268208342
2289.3755	0.268192615
2287.44679	0.268119068
2285.51808	0.268261151
2283.58937	0.268187688
2281.66067	0.268114384
2279.73196	0.268256014
2277.80325	0.268240343
2275.87455	0.268381565
2273.94584	0.268308351
2272.01713	0.268235294
2270.08842	0.268433426
2268.15972	0.268573868
2266.23101	0.268500746
2264.3023	0.26842778
2262.37359	0.268624947
2260.44489	0.268551988
2258.51618	0.268479184
2256.58747	0.268618714
2254.65877	0.268700996
2252.73006	0.268839966
2250.80135	0.268978642
2248.87264	0.268848997
2246.94394	0.268776371
2245.01523	0.268857986
2243.08652	0.268996001
2241.15782	0.268866933
2239.22911	0.268948142
2237.3004	0.268875839
2235.37169	0.26895685
2233.44299	0.268884704
2231.51428	0.268965517
2229.58557	0.269046128
2227.65686	0.269126537
2225.72816	0.269054561
2223.79945	0.268926789
2221.87074	0.269062954
2219.94204	0.269142976
2218.01333	0.26907131
2216.08462	0.269151139
2214.15591	0.269079628
2212.22721	0.269159265
2210.2985	0.269294263
2208.36979	0.269428984
2206.44108	0.269507927
2204.51238	0.269436446
2202.58367	0.269570577
2200.65496	0.269499179
2198.72626	0.269632971
2196.79755	0.269506451
2194.86884	0.269639935
2192.94013	0.269568772
2191.01143	0.269701919
2189.08272	0.269630838
2187.15401	0.269559902
2185.22531	0.269692652
2183.2966	0.269621797
2181.36789	0.269754215
2179.43918	0.269683442
2177.51048	0.269815528
2175.58177	0.269947347
2173.65306	0.270078899
2171.72435	0.270008084
2169.79565	0.269937412
2167.86694	0.270068576
2165.93823	0.269997985
2164.00953	0.270128824
2162.08082	0.270058315
2160.15211	0.269987947
2158.2234	0.26991772
2156.2947	0.270048115
2154.36599	0.270032051
2152.43728	0.270162097
2150.50857	0.270145971
2148.57987	0.270237857
2146.65116	0.270237857
2144.72245	0.270237857
2142.79375	0.270459082
2140.86504	0.270517928
2138.93633	0.270431497
2137.00762	0.27045274
2135.07892	0.270382861
2133.15021	0.270511296
2131.2215	0.270585907
2129.2928	0.27066034
2127.36409	0.270590559
2125.43538	0.270467548
2123.50667	0.270398108
2121.57797	0.270525694
2119.64926	0.270653029
2117.72055	0.270726916
2115.79184	0.270853778
2113.86314	0.270731229
2111.93443	0.270857814
2110.00572	0.270735524
2108.07702	0.270861833
2106.14831	0.270934999
2104.2196	0.270865835
2102.29089	0.270991623
2100.36219	0.271064409
2098.43348	0.271137026
2096.50477	0.271015337
2094.57606	0.271140419
2092.64736	0.271212708
2090.71865	0.27128483
2088.78994	0.271356784
2086.86124	0.271428571
2084.93253	0.271307366
2083.00382	0.271186441
2081.07511	0.271258176
2079.14641	0.271381895
2077.2177	0.271453254
2075.28899	0.271524449
2073.36029	0.27159548
2071.43158	0.271475033
2069.50287	0.271267444
2067.57416	0.271251194
2065.64546	0.271374046
2063.71675	0.271583762
2061.78804	0.271741199
2059.85933	0.271759787
2057.93063	0.271829916
2056.00192	0.271899886
2054.07321	0.271780303
2052.14451	0.271901608
2050.2158	0.271971272
2048.28709	0.272040778
2046.35838	0.271921554
2044.42968	0.271990959
2042.50097	0.271923222
2040.57226	0.271992481
2038.64355	0.272061585
2036.71485	0.271993997
2034.78614	0.272062957
2032.85743	0.272046433
2030.92873	0.272131761
2029.00002	0.272029935
2027.07131	0.272183822
2025.1426	0.272337251
2023.2139	0.272354694
2021.28519	0.272422776
2019.35648	0.272355456
2017.42778	0.272473997
2015.49907	0.272592318
2013.57036	0.27265987
2011.64165	0.272542122
2009.71295	0.272475028
2007.78424	0.272592866
2005.85553	0.272525849
2003.92682	0.272643424
2001.99812	0.272760781
2000.06941	0.272693795
1998.1407	0.272760714
1996.212	0.272693863
1994.28329	0.272627134
1992.35458	0.272793983
1990.42587	0.272910557
1988.49717	0.273026918
1986.56846	0.272910188
1984.63975	0.272843567
1982.71104	0.272959649
1980.78234	0.27307552
1978.85363	0.273240977
1976.92492	0.273174285
1974.99622	0.273107715
1973.06751	0.273272727
1971.1388	0.273255814
1969.21009	0.273370848
1967.28139	0.273353891
1965.35268	0.273468648
1963.42397	0.273501177
1961.49527	0.273485673
1959.56656	0.273420479
1957.63785	0.273567803
1955.70914	0.273581496
1953.78044	0.273661439
1951.85173	0.273545831
1949.92302	0.273708836
1947.99431	0.273773144
1946.06561	0.273837314
1944.1369	0.27377108
1942.20819	0.273704965
1940.27949	0.273720014
1938.35078	0.273913821
1936.42207	0.274026438
1934.49336	0.273960378
1932.56466	0.274072753
1930.63595	0.27400677
1928.70724	0.274118904
1926.77853	0.274279616
1924.84983	0.274213613
1922.92112	0.274196413
1920.99241	0.274179237
1919.06371	0.274162085
1917.135	0.274224978
1915.20629	0.274367592
1913.27758	0.274430111
1911.34888	0.274412855
1909.42017	0.274523641
1907.49146	0.274634232
1905.56276	0.274696249
1903.63405	0.274630542
1901.70534	0.274740728
1899.77663	0.274898999
1897.84793	0.274705986
1895.91922	0.274688651
1893.99051	0.274623204
1892.0618	0.274781086
1890.1331	0.274938747
1888.20439	0.275048085
1886.27568	0.27510917
1884.34698	0.27504363
1882.41827	0.275152572
1880.48956	0.275087108
1878.56085	0.275195822
1876.63215	0.275130435
1874.70344	0.275065161
1872.77473	0.275269191
1870.84602	0.275442862
1868.91732	0.275520833
1866.98861	0.275485437
1865.0599	0.275402458
1863.1312	0.275289642
1861.20249	0.275397374
1859.27378	0.275332298
1857.34507	0.275439807
1855.41637	0.275547131
1853.48766	0.275701739
1851.55895	0.275636614
1849.63025	0.275618982
1847.70154	0.27574351
1845.77283	0.275790922
1843.84412	0.275773196
1841.91542	0.275986278
1839.98671	0.27607467
1838.058	0.276133447
1836.12929	0.276068376
1834.20059	0.27617421
1832.27188	0.276127049
1830.34317	0.276203482
1828.41447	0.276185602
1826.48576	0.27607362
1824.55705	0.276302349
1822.62834	0.276313552
1820.69964	0.276371666
1818.77093	0.27635376
1816.84222	0.276335878
1814.91351	0.276364869
1812.98481	0.276440678
1811.0561	0.276638997
1809.12739	0.276620958
1807.19869	0.27677212
1805.26998	0.276631721
1803.34127	0.276631721
1801.41256	0.276800812
1799.48386	0.276876268
1797.55515	0.276858108
1795.62644	0.277027027
1793.69774	0.276998479
1791.76903	0.276998479
1789.84032	0.276886713
1787.91161	0.277037287
1785.98291	0.277037287
1784.0542	0.277206006
1782.12549	0.277159244
1780.19678	0.27728116
1778.26808	0.277187658
1776.33937	0.277234401
1774.41066	0.277299578
1772.48196	0.277318021
1770.55325	0.277393213
1768.62454	0.277496626
1766.69583	0.277721604
1764.76713	0.277749705
1762.83842	0.277843302
1760.90971	0.277768414
1758.981	0.277815239
1757.0523	0.27795581
1755.12359	0.278021607
1753.19488	0.277984444
1751.26618	0.278041342
1749.33747	0.278154681
1747.40876	0.278126591
1745.48005	0.278268251
1743.55135	0.278259391
1741.62264	0.278468085
1739.69393	0.278534923
1737.76523	0.278601876
1735.83652	0.278470207
1733.90781	0.278489663
1731.9791	0.278526352
1730.0504	0.278590878
1728.12169	0.278797146
1726.19298	0.278710772
1724.26427	0.278671862
1722.33557	0.278774543
1720.40686	0.278774543
1718.47815	0.278774543
1716.54945	0.278782756
1714.62074	0.278873714
1712.69203	0.278917283
1710.76332	0.27885906
1708.83462	0.278867102
1706.90591	0.27901524
1704.9772	0.278902459
1703.04849	0.279023085
1701.11979	0.278902459
1699.19108	0.27907754
1697.26237	0.27913957
1695.33367	0.279201331
1693.40496	0.279289744
1691.47625	0.279324056
1689.54754	0.279350886
1687.61884	0.279443432
1685.69013	0.279389819
1683.76142	0.279389819
1681.83272	0.27937769
1679.90401	0.279457941
1677.9753	0.279365604
1676.04659	0.279411765
1674.11789	0.279484638
1672.18918	0.279346211
1670.26047	0.279392338
1668.33176	0.279656822
1666.40306	0.279782501
1664.47435	0.279736409
1662.54564	0.279690331
1660.61694	0.279835391
1658.68823	0.279907849
1656.75952	0.279947273
1654.83081	0.279907469
1652.90211	0.279854449
1650.9734	0.279795312
1649.04469	0.279802143
1647.11598	0.279967024
1645.18728	0.280019766
1643.25857	0.280052623
1641.32986	0.280032868
1639.40116	0.280052623
1637.47245	0.280092211
1635.54374	0.280184484
1633.61503	0.280263158
1631.68633	0.2803416
1629.75762	0.280413725
1627.82891	0.280295567
1625.90021	0.280387648
1623.9715	0.280433711
1622.04279	0.28050583
1620.11408	0.280577902
1618.18538	0.280670061
1616.25667	0.280742078
1614.32796	0.280865716
1612.39925	0.280963303
1610.47055	0.280917281
1608.54184	0.281081081
1606.61313	0.280989029
1604.68443	0.28106073
1602.75572	0.280968745
1600.82701	0.280994439
1598.8983	0.281229562
1596.9696	0.281255107
1595.04089	0.281280627
1593.11218	0.281377509
1591.18347	0.281311155
1589.25477	0.281407854
1587.32606	0.281621358
1585.39735	0.281717632
1583.46865	0.28160546
1581.53994	0.28158493
1579.61123	0.281539211
1577.68252	0.281630664
1575.75382	0.281610128
1573.82511	0.28184765
1571.8964	0.281781377
1569.96769	0.28180641
1568.03899	0.281856404
1566.11028	0.281815245
1564.18157	0.281840194
1562.25287	0.281835811
1560.32416	0.281735751
1558.39545	0.28194332
1556.46674	0.28195185
1554.53804	0.28203062
1552.60933	0.282104924
1550.68062	0.282084271
1548.75192	0.282315113
1546.82321	0.282290494
1544.8945	0.282286634
1542.96579	0.282258065
1541.03709	0.282233339
1539.10838	0.282261962
1537.17967	0.282455013
1535.25096	0.282528477
1533.32226	0.282667949
1531.39355	0.282671365
1529.46484	0.282650448
1527.53614	0.282740954
1525.60743	0.282761935
1523.67872	0.282758621
1521.75001	0.282664526
1519.82131	0.282688914
1517.8926	0.282852564
1515.96389	0.282946357
1514.03518	0.283015848
1512.10648	0.282901057
1510.17777	0.282852564
1508.24906	0.28284935
1506.32036	0.282988616
1504.39165	0.283109405
1502.46294	0.283250838
1500.53423	0.283296072
1498.60553	0.283407928
1496.67682	0.283407928
1494.74811	0.283386581
1492.81941	0.283386581
1490.8907	0.283293365
1488.96199	0.283383976
1487.03328	0.283522455
1485.10458	0.283615458
1483.17587	0.283684547
1481.24716	0.283615458
1479.31845	0.283522455
1477.38975	0.283610755
1475.46104	0.283515074
1473.53233	0.283649213
1471.60363	0.283831565
1469.67492	0.284037936
1467.74621	0.283898987
1465.8175	0.28389694
1463.8888	0.283988402
1461.96009	0.284079923
1460.03138	0.284054229
1458.10267	0.283958603
1456.17397	0.284074373
1454.24526	0.284123911
1452.31655	0.284356372
1450.38785	0.284425833
1448.45914	0.284541063
1446.53043	0.284357902
1444.60172	0.284405145
1442.67302	0.284589426
1440.74431	0.284635166
1438.8156	0.284518828
1436.8869	0.284425833
1434.95819	0.284564623
1433.02948	0.284657446
1431.10077	0.284772471
1429.17207	0.28481827
1427.24336	0.284979093
1425.31465	0.285116653
1423.38594	0.28507006
1421.45724	0.285045975
1419.52853	0.285021813
1417.59982	0.285113949
1415.67112	0.285137318
1413.74241	0.285344967
1411.8137	0.285413972
1409.88499	0.285321249
1407.95629	0.285228377
1406.02758	0.285181582
1404.09887	0.285204413
1402.17016	0.28538961
1400.24146	0.285412606
1398.31275	0.285551763
1396.38404	0.285551763
1394.45534	0.285691083
1392.52663	0.285853342
1390.59792	0.285876439
1388.66921	0.285806975
1386.74051	0.285899724
1384.8118	0.285922802
1382.88309	0.28627006
1380.95439	0.286292936
1379.02568	0.286408553
1377.09697	0.286246558
1375.16826	0.286339329
1373.23956	0.286292936
1371.31085	0.286524133
1369.38214	0.286593264
1367.45343	0.286546867
1365.52473	0.286546867
1363.59602	0.286593264
1361.66731	0.286615957
1359.73861	0.286661277
1357.8099	0.286752827
1355.88119	0.286936864
1353.95248	0.286959329
1352.02378	0.286981771
1350.09507	0.286957924
1348.16636	0.286934107
1346.23765	0.28691032
1344.30895	0.287093659
1342.38024	0.287208367
1340.45153	0.287208367
1338.52283	0.287069797
1336.59412	0.287160534
1334.66541	0.287205009
1332.7367	0.287295476
1330.808	0.287271561
1328.87929	0.287293703
1326.95058	0.287361845
1325.02188	0.287315823
1323.09317	0.287315823
1321.16446	0.287361845
1319.23575	0.287407882
1317.30705	0.287614164
1315.37834	0.287866645
1313.44963	0.287912793
1311.52092	0.287958955
1309.59222	0.287844772
1307.66351	0.287937119
1305.7348	0.288029525
1303.8061	0.28812199
1301.87739	0.288146482
1299.94868	0.288124699
1298.01997	0.288195561
1296.09127	0.288220148
1294.16256	0.28829119
1292.23385	0.288523533
1290.30514	0.288594935
1288.37644	0.288505005
1286.44773	0.288623142
1284.51902	0.288579748
1282.59032	0.288629738
1280.66161	0.2887952
1278.7329	0.288892498
1276.80419	0.289084106
1274.87549	0.288997555
1272.94678	0.289052288
1271.01807	0.289085546
1269.08937	0.289239882
1267.16066	0.289351852
1265.23195	0.289464939
1263.30324	0.289574646
1261.37454	0.289724311
1259.44583	0.289767985
1257.51712	0.289925062
1255.58841	0.289985052
1253.65971	0.28990552
1251.731	0.289996688
1249.80229	0.289996688
1247.87359	0.290023202
1245.94488	0.29009786
1244.01617	0.290269014
1242.08746	0.290440565
1240.15876	0.290494423
1238.23005	0.290430143
1236.30134	0.290532643
1234.37263	0.290684061
1232.44393	0.29078727
1230.51522	0.29089079
1228.58651	0.290994624
1226.65781	0.291098772
1224.7291	0.291083769
1222.80039	0.291237549
1220.87168	0.291271989
1218.94298	0.291426635
1217.01427	0.291631302
1215.08556	0.291666667
1213.15686	0.291751875
1211.22815	0.292008197
1209.29944	0.292144446
1207.37073	0.292281304
1205.44203	0.292418773
1203.51332	0.292556857
1201.58461	0.292645028
1199.6559	0.292784219
1197.7272	0.292750607
1195.79849	0.293064488
1193.86978	0.293205575
1191.94108	0.293296089
1190.01237	0.293386984
1188.08366	0.293529721
1186.15495	0.293724732
1184.22625	0.294076164
1182.29754	0.294180081
1180.36883	0.294305482
1178.44012	0.294525418
1176.51142	0.294641268
1174.58271	0.294862647
1172.654	0.294958885
1170.7253	0.295287583
1168.79659	0.295491288
1166.86788	0.29564278
1164.93917	0.29566787
1163.01047	0.29587405
1161.08176	0.296027571
1159.15305	0.296235679
1157.22435	0.296498906
1155.29564	0.296763577
1153.36693	0.297084174
1151.43822	0.297222733
1149.50952	0.297232472
1147.58081	0.297427355
1145.6521	0.297734027
1143.72339	0.297856477
1141.79469	0.29811109
1139.86598	0.298387097
1137.93727	0.298664661
1136.00857	0.298755187
1134.07986	0.298959319
1132.15115	0.299221568
1130.22244	0.299409186
1128.29374	0.299655568
1126.36503	0.299961568
1124.43632	0.30007719
1122.50761	0.300251987
1120.57891	0.300486855
1118.6502	0.300782779
1116.72149	0.301140834
1114.79279	0.301562191
1112.86408	0.302048121
1110.93537	0.3024
1109.00666	0.302816901
1107.07796	0.303036437
1105.14925	0.303258656
1103.22054	0.303831182
1101.29184	0.304285126
1099.36313	0.304491824
1097.43442	0.304718354
1095.50571	0.305109489
1093.57701	0.305520703
1091.6483	0.306143846
1089.71959	0.306560135
1087.79088	0.306751055
1085.86218	0.307219987
1083.93347	0.307757705
1082.00476	0.308365344
1080.07606	0.308697515
1078.14735	0.309098731
1076.21864	0.309302828
1074.28993	0.309807318
1072.36123	0.310180161
1070.43252	0.310704961
1068.50381	0.311232279
1066.5751	0.311762134
1064.6464	0.312294543
1062.71769	0.312678532
1060.78898	0.313215859
1058.86028	0.313838005
1056.93157	0.314254144
1055.00286	0.314683768
1053.07415	0.315265487
1051.14545	0.315626383
1049.21674	0.316057586
1047.28803	0.316640815
1045.35933	0.3172949
1043.43062	0.317949856
1041.50191	0.318454364
1039.5732	0.31918204
1037.6445	0.319982198
1035.71579	0.320641283
1033.78708	0.321372855
1031.85837	0.322033898
1029.92967	0.322846943
1028.00096	0.323588485
1026.07225	0.323890252
1024.14355	0.32449298
1022.21484	0.325022262
1020.28613	0.325772737
1018.35742	0.326449034
1016.42872	0.327272727
1014.50001	0.327578575
1012.5713	0.328252706
1010.64259	0.328703704
1008.71389	0.32908051
1006.78518	0.330039526
1004.85647	0.330775975
1002.92777	0.331581253
1000.99906	0.332239002
999.07035	0.332822757
997.14164	0.333406257
995.21294	0.334208798
993.28423	0.334793081
991.35552	0.335744028
989.42682	0.336698859
987.49811	0.337510994
985.5694	0.338180216
983.64069	0.339297548
981.71199	0.340128518
979.78328	0.341192171
977.85457	0.342193433
975.92586	0.34320323
973.99716	0.344369369
972.06845	0.345388788
970.13974	0.346337038
968.21104	0.347440273
966.28233	0.348471018
964.35362	0.349427918
962.42491	0.35061955
960.49621	0.351817763
958.5675	0.352873298
956.63879	0.35409912
954.71008	0.355183636
952.78138	0.356126021
950.85267	0.357092614
948.92396	0.357917059
946.99526	0.358767773
945.06655	0.359799714
943.13784	0.361017763
941.20913	0.362031439
939.28043	0.363082175
937.35172	0.364329643
935.42301	0.365284331
933.49431	0.366507897
931.5656	0.367501898
929.63689	0.368488253
927.70818	0.369397218
925.77948	0.37038961
923.85077	0.371301388
921.92206	0.37232638
919.99335	0.373368842
918.06465	0.37426115
916.13594	0.37527115
914.20723	0.376232202
912.27853	0.377144438
910.34982	0.378287633
908.42111	0.379281064
906.4924	0.380120309
904.5637	0.380979994
902.63499	0.382154388
900.70628	0.382902939
898.77757	0.384038404
896.84887	0.385268263
894.92016	0.386523737
892.99145	0.387616099
891.06275	0.388419405
889.13404	0.389047167
887.20533	0.390009606
885.27662	0.390994493
883.34792	0.391546527
881.41921	0.392442824
879.4905	0.392761394
877.5618	0.393498137
875.63309	0.394664843
873.70438	0.395445135
871.77567	0.396521739
869.84697	0.397125832
867.91826	0.397739315
865.98955	0.398362407
864.06084	0.399067766
862.13214	0.399783315
860.20343	0.400509276
858.27472	0.401098901
856.34602	0.401548673
854.41731	0.402004454
852.4886	0.402466368
850.55989	0.40331076
848.63119	0.404013631
846.70248	0.404952381
844.77377	0.405208732
842.84506	0.405082788
840.91636	0.405185759
838.98765	0.405289771
837.05894	0.405944466
835.13024	0.406053459
833.20153	0.406163572
831.27282	0.406349206
829.34411	0.406137904
827.41541	0.406087305
825.4867	0.406199678
823.55799	0.405908539
821.62929	0.405856039
819.70058	0.405803024
817.77187	0.405416496
815.84316	0.405605936
813.91446	0.405383023
811.98575	0.404910529
810.05704	0.4041841
808.12833	0.403700589
806.19963	0.403041825
804.27092	0.402459712
802.34221	0.401956614
800.41351	0.401534527
798.4848	0.40059727
796.55609	0.399487836
794.62738	0.398037543
792.69868	0.397014925
790.76997	0.395398381
788.84126	0.394042553
786.91255	0.392857143
784.98385	0.391415215
783.05514	0.389549703
781.12643	0.387685775
779.19773	0.385659737
777.26902	0.38379983
775.34031	0.38220339
773.4116	0.380609653
771.4829	0.377852916
769.55419	0.375527426
767.62548	0.373788453
765.69678	0.371632997
763.76807	0.36921783
761.83936	0.366960908
759.91065	0.364859185
757.98195	0.362757461
756.05324	0.360959192
754.12453	0.358887953
752.19582	0.356389709
750.26712	0.354457119
748.33841	0.352094795
746.4097	0.350021213
744.481	0.347937048
742.55229	0.345989761
740.62358	0.344606164
738.69487	0.342918455
736.76617	0.34136892
734.83746	0.339956803
732.90875	0.3386817
730.98004	0.336961254
729.05134	0.335664336
727.12263	0.334503951
725.19392	0.333480371
723.26522	0.332150776
721.33651	0.330806955
719.4078	0.330044843
717.47909	0.329125338
715.55039	0.32819583
713.62168	0.327861377
711.69297	0.327214318
709.76427	0.325946445
707.83556	0.32527881
705.90685	0.324602432
703.97814	0.323917137
702.04944	0.323376008
700.12073	0.322827125
698.19202	0.322751323
696.26331	0.322189922
694.33461	0.322265625
692.4059	0.321850394
690.47719	0.321428571
688.54849	0.3215
686.61978	0.321230459
684.69107	0.321283096
682.76236	0.321336761
680.83366	0.321058091
678.90495	0.320251177
676.97624	0.319957761
675.04753	0.320362473
673.11883	0.320409262
671.19012	0.320457018
669.26141	0.320505772
667.33271	0.319822321
665.404	0.319685923
663.47529	0.319546742
661.54658	0.319404694
659.61788	0.319259688
657.68917	0.319111631
655.76046	0.319739953
653.83176	0.320574163
651.90305	0.320435308
649.97434	0.319682152
648.04563	0.319332922
646.11693	0.319401123
644.18822	0.319068597
642.25951	0.318932656
640.3308	0.319435536
638.4021	0.318446602
636.47339	0.318300654
634.54468	0.318361955
632.61598	0.318850267
630.68727	0.318673884
628.75856	0.318711446
626.82985	0.31875
624.90115	0.318789585
622.97244	0.318830243
621.04373	0.319364162
619.11502	0.318946598
617.18632	0.318786982
615.25761	0.31838565
613.3289	0.318250377
611.4002	0.318389058
609.47149	0.318529862
607.54278	0.31867284
605.61407	0.318287938
603.68537	0.317896389
601.75666	0.317749604
