4999.20917	0.388235294
4997.28046	0.386416862
4995.35176	0.385514019
4993.42305	0.386946387
4991.49434	0.386046512
4989.56564	0.387470998
4987.63693	0.386574074
4985.70822	0.388888889
4983.77951	0.387990762
4981.85081	0.387096774
4979.9221	0.386206897
4977.99339	0.387614679
4976.06468	0.386727689
4974.13598	0.385844749
4972.20727	0.384965831
4970.27856	0.387243736
4968.34986	0.386363636
4966.42115	0.387755102
4964.49244	0.386877828
4962.56373	0.388261851
4960.63503	0.387387387
4958.70632	0.386516854
4956.77761	0.385650224
4954.8489	0.387024609
4952.9202	0.388392857
4950.99149	0.38752784
4949.06278	0.388888889
4947.13408	0.388026608
4945.20537	0.387168142
4943.27666	0.386313466
4941.34795	0.387665198
4939.41925	0.386813187
4937.49054	0.385964912
4935.56183	0.387308534
4933.63313	0.386462882
4931.70442	0.387799564
4929.77571	0.389130435
4927.847	0.388286334
4925.9183	0.387445887
4923.98959	0.386609071
4922.06088	0.385775862
4920.13217	0.387096774
4918.20347	0.386266094
4916.27476	0.3875803
4914.34605	0.386752137
4912.41735	0.388059701
4910.48864	0.387234043
4908.55993	0.38641189
4906.63122	0.38559322
4904.70252	0.384778013
4902.77381	0.386075949
4900.8451	0.387368421
4898.91639	0.386554622
4896.98769	0.387840671
4895.05898	0.387029289
4893.13027	0.386221294
4891.20157	0.3875
4889.27286	0.386694387
4887.34415	0.387966805
4885.41544	0.387163561
4883.48674	0.387628866
4881.55803	0.386831276
4879.62932	0.386831276
4877.70062	0.385245902
4875.77191	0.386503067
4873.8432	0.385714286
4871.91449	0.386965377
4869.98579	0.386178862
4868.05708	0.387423935
4866.12837	0.385858586
4864.19966	0.385858586
4862.27096	0.387096774
4860.34225	0.386317907
4858.41354	0.387550201
4856.48484	0.386773547
4854.55613	0.386
4852.62742	0.387225549
4850.69871	0.385685885
4848.77001	0.386904762
4846.8413	0.386138614
4844.91259	0.387351779
4842.98388	0.387351779
4841.05518	0.386587771
4839.12647	0.387033399
4837.19776	0.38627451
4835.26906	0.387475538
4833.34035	0.38671875
4831.41164	0.38791423
4829.48293	0.387159533
4827.55423	0.386407767
4825.62552	0.386847195
4823.69681	0.386100386
4821.76811	0.385356455
4819.8394	0.386538462
4817.91069	0.385796545
4815.98198	0.38697318
4814.05328	0.38740458
4812.12457	0.386666667
4810.19586	0.385931559
4808.26715	0.387096774
4806.33845	0.386363636
4804.40974	0.387523629
4802.48103	0.386792453
4800.55233	0.387947269
4798.62362	0.386491557
4796.69491	0.38576779
4794.7662	0.386915888
4792.8375	0.38619403
4790.90879	0.387337058
4788.98008	0.385899814
4787.05137	0.387037037
4785.12267	0.386321627
4783.19396	0.385608856
4781.26525	0.386740331
4779.33655	0.385321101
4777.40784	0.384615385
4775.47913	0.385740402
4773.55042	0.385036496
4771.62172	0.386156648
4769.69301	0.385454545
4767.7643	0.386569873
4765.8356	0.385869565
4763.90689	0.384476534
4761.97818	0.385585586
4760.04947	0.384892086
4758.12077	0.385996409
4756.19206	0.385304659
4754.26335	0.386404293
4752.33464	0.385026738
4750.40594	0.386120996
4748.47723	0.386524823
4746.54852	0.385840708
4744.61982	0.385159011
4742.69111	0.384479718
4740.7624	0.38556338
4738.83369	0.384885764
4736.90499	0.385964912
4734.97628	0.386363636
4733.04757	0.385689354
4731.11886	0.386086957
4729.19016	0.385416667
4727.26145	0.386481802
4725.33274	0.385813149
4723.40404	0.385146805
4721.47533	0.386206897
4719.54662	0.384879725
4717.61791	0.38593482
4715.68921	0.385273973
4713.7605	0.383959044
4711.83179	0.38330494
4709.90308	0.384353741
4707.97438	0.383701188
4706.04567	0.384745763
4704.11696	0.384094755
4702.18826	0.384485666
4700.25955	0.385521886
4698.33084	0.384228188
4696.40213	0.385259631
4694.47343	0.384615385
4692.54472	0.385
4690.61601	0.384359401
4688.68731	0.38538206
4686.7586	0.384742952
4684.82989	0.385123967
4682.90118	0.384488449
4680.97248	0.383855025
4679.04377	0.384236453
4677.11506	0.383606557
4675.18635	0.384615385
4673.25765	0.383986928
4671.32894	0.384991843
4669.40023	0.383739837
4667.47153	0.38474026
4665.54282	0.383495146
4663.61411	0.384491115
4661.6854	0.383870968
4659.7567	0.384863124
4657.82799	0.38585209
4655.89928	0.384615385
4653.97057	0.384
4652.04187	0.384370016
4650.11316	0.383757962
4648.18445	0.384737679
4646.25575	0.385103011
4644.32704	0.383886256
4642.39833	0.383280757
4640.46962	0.384251969
4638.54092	0.383647799
4636.61221	0.384012539
4634.6835	0.384976526
4632.7548	0.384375
4630.82609	0.38317757
4628.89738	0.384136858
4626.96867	0.382945736
4625.03997	0.383900929
4623.11126	0.382716049
4621.18255	0.38366718
4619.25384	0.383076923
4617.32514	0.384024578
4615.39643	0.382848392
4613.46772	0.383206107
4611.53902	0.384146341
4609.61031	0.383561644
4607.6816	0.382978723
4605.75289	0.383333333
4603.82419	0.382753404
4601.89548	0.383107089
4599.96677	0.38253012
4598.03806	0.383458647
4596.10936	0.383808096
4594.18065	0.383233533
4592.25194	0.38358209
4590.32324	0.383010432
4588.39453	0.383928571
4586.46582	0.382789318
4584.53711	0.383703704
4582.60841	0.382570162
4580.6797	0.383480826
4578.75099	0.382916053
4576.82229	0.383259912
4574.89358	0.382697947
4572.96487	0.383040936
4571.03616	0.382481752
4569.10746	0.382823872
4567.17875	0.382267442
4565.25004	0.382608696
4563.32133	0.383502171
4561.39263	0.382947977
4559.46392	0.383285303
4557.53521	0.382733813
4555.60651	0.383070301
4553.6778	0.38252149
4551.74909	0.382857143
4549.82038	0.382310984
4547.89168	0.383190883
4545.96297	0.382102273
4544.03426	0.381560284
4542.10555	0.381895332
4540.17685	0.382768362
4538.24814	0.381690141
4536.31943	0.382559775
4534.39073	0.381486676
4532.46202	0.382352941
4530.53331	0.383216783
4528.6046	0.382147838
4526.6759	0.383008357
4524.74719	0.381944444
4522.81848	0.382801664
4520.88978	0.381742739
4518.96107	0.380689655
4517.03236	0.3815427
4515.10365	0.381868132
4513.17495	0.381344307
4511.24624	0.381668947
4509.31753	0.382513661
4507.38882	0.38147139
4505.46012	0.382312925
4503.53141	0.382632293
4501.6027	0.382113821
4499.674	0.382432432
4497.74529	0.381916329
4495.81658	0.382234186
4493.88787	0.38172043
4491.95917	0.382037534
4490.03046	0.381526104
4488.10175	0.381842457
4486.17304	0.381333333
4484.24434	0.381648936
4482.31563	0.38247012
4480.38692	0.381456954
4478.45822	0.380449141
4476.52951	0.381266491
4474.6008	0.381578947
4472.67209	0.38107753
4470.74339	0.381389253
4468.81468	0.380392157
4466.88597	0.381201044
4464.95727	0.380208333
4463.02856	0.381014304
4461.09985	0.381322957
4459.17114	0.380829016
4457.24244	0.381136951
4455.31373	0.380645161
4453.38502	0.380952381
4451.45631	0.380462725
4449.52761	0.380769231
4447.5989	0.379795396
4445.67019	0.380587484
4443.74149	0.38089172
4441.81278	0.380407125
4439.88407	0.379441624
4437.95536	0.380228137
4436.02666	0.380530973
4434.09795	0.379571248
4432.16924	0.380352645
4430.24053	0.380653266
4428.31183	0.380952381
4426.38312	0.380475594
4424.45441	0.380774032
4422.52571	0.380299252
4420.597	0.379353234
4418.66829	0.380124224
4416.73958	0.380421314
4414.81088	0.380716934
4412.88217	0.379778052
4410.95346	0.380073801
4409.02476	0.37960688
4407.09605	0.379901961
4405.16734	0.379436965
4403.23863	0.378510379
4401.30993	0.379268293
4399.38122	0.379562044
4397.45251	0.378640777
4395.5238	0.379393939
4393.5951	0.379685611
4391.66639	0.379227053
4389.73768	0.379518072
4387.80898	0.378605769
4385.88027	0.379351741
4383.95156	0.379640719
4382.02285	0.378733572
4380.09415	0.37947494
4378.16544	0.379761905
4376.23673	0.379310345
4374.30802	0.379596679
4372.37932	0.378698225
4370.45061	0.378984652
4368.5219	0.379269729
4366.5932	0.378823529
4364.66449	0.379107981
4362.73578	0.379391101
4360.80707	0.378504673
4358.87837	0.378787879
4356.94966	0.377906977
4355.02095	0.378629501
4353.09225	0.378910776
4351.16354	0.378034682
4349.23483	0.378752887
4347.30612	0.377880184
4345.37742	0.377445339
4343.44871	0.377726751
4341.52	0.378006873
4339.59129	0.378285714
4337.66259	0.377423033
4335.73388	0.378132118
4333.80517	0.378409091
4331.87647	0.378684807
4329.94776	0.377828054
4328.01905	0.378531073
4326.09034	0.377677565
4324.16164	0.377952756
4322.23293	0.378226712
4320.30422	0.377802691
4318.37551	0.378076063
4316.44681	0.377232143
4314.5181	0.377505568
4312.58939	0.376666667
4310.66069	0.376940133
4308.73198	0.377630122
4306.80327	0.37679558
4304.87456	0.377067255
4302.94586	0.376237624
4301.01715	0.376923077
4299.08844	0.377192982
4297.15974	0.376367615
4295.23103	0.376637555
4293.30232	0.376906318
4291.37361	0.376086957
4289.44491	0.376764387
4287.5162	0.377031419
4285.58749	0.377297297
4283.65878	0.377562028
4281.73008	0.377155172
4279.80137	0.376344086
4277.87266	0.376609442
4275.94396	0.376873662
4274.01525	0.376068376
4272.08654	0.376332623
4270.15783	0.375531915
4268.22913	0.376195537
4266.30042	0.376458112
4264.37171	0.375661376
4262.443	0.37592397
4260.5143	0.376185458
4258.58559	0.375394322
4256.65688	0.375655824
4254.72818	0.37486911
4252.79947	0.375130617
4250.87076	0.375782881
4248.94205	0.376041667
4247.01335	0.376690947
4245.08464	0.375908619
4243.15593	0.376165803
4241.22723	0.376421923
4239.29852	0.37628866
4237.36981	0.375514403
4235.4411	0.375128469
4233.5124	0.375384615
4231.58369	0.375639713
4229.65498	0.375893769
4227.72627	0.375127421
4225.79757	0.375381485
4223.86886	0.374619289
4221.94015	0.374873354
4220.01145	0.375506073
4218.08274	0.374747475
4216.15403	0.375
4214.22532	0.374245473
4212.29662	0.374497992
4210.36791	0.374749499
4208.4392	0.375375375
4206.51049	0.374251497
4204.58179	0.374501992
4202.65308	0.373757455
4200.72437	0.374007937
4198.79567	0.374257426
4196.86696	0.374505929
4194.93825	0.373767258
4193.00954	0.374015748
4191.08084	0.373647984
4189.15213	0.373895976
4187.22342	0.374142997
4185.29472	0.374389052
4183.36601	0.373658537
4181.4373	0.374269006
4179.50859	0.37414966
4177.57989	0.37342386
4175.65118	0.373668925
4173.72247	0.373913043
4171.79376	0.3731919
4169.86506	0.373435996
4167.93635	0.37271854
4166.00764	0.373563218
4164.07894	0.372848948
4162.15023	0.373447947
4160.22152	0.372735939
4158.29281	0.372978116
4156.36411	0.373219373
4154.4354	0.373459716
4152.50669	0.372753075
4150.57798	0.37299339
4148.64928	0.373232799
4146.72057	0.372530574
4144.79186	0.372420263
4142.86316	0.372659176
4140.93445	0.371962617
4139.00574	0.372201493
4137.07703	0.372439479
4135.14833	0.37267658
4133.21962	0.371985158
4131.29091	0.372222222
4129.36221	0.37280296
4127.4335	0.372114497
4125.50479	0.37235023
4123.57608	0.372242647
4121.64738	0.371559633
4119.71867	0.371794872
4117.78996	0.37202925
4115.86125	0.372262774
4113.93255	0.371584699
4112.00384	0.371818182
4110.07513	0.372050817
4108.14643	0.371040724
4106.21772	0.371273713
4104.28901	0.370604148
4102.3603	0.370837084
4100.4316	0.371069182
4098.50289	0.370403587
4096.57418	0.370635631
4094.64547	0.370866845
4092.71677	0.371097235
4090.78806	0.370436331
4088.85935	0.370666667
4086.93065	0.370567376
4085.00194	0.37079646
4083.07323	0.370141343
4081.14452	0.37037037
4079.21582	0.370598592
4077.28711	0.370826011
4075.3584	0.370175439
4073.4297	0.370402802
4071.50099	0.370629371
4069.57228	0.369982548
4067.64357	0.369886858
4065.71487	0.369244136
4063.78616	0.369470945
4061.85745	0.36969697
4059.92874	0.369602763
4058.00004	0.369827586
4056.07133	0.36919105
4054.14262	0.368240343
4052.21392	0.368782161
4050.28521	0.369006849
4048.3565	0.369230769
4046.42779	0.369453925
4044.49909	0.368510638
4042.57038	0.36873407
4040.64167	0.368956743
4038.71296	0.369178662
4036.78426	0.369087838
4034.85555	0.3693086
4032.92684	0.368686869
4030.99814	0.368907563
4029.06943	0.368818106
4027.14072	0.369037657
4025.21201	0.368421053
4023.28331	0.368640534
4021.3546	0.368552413
4019.42589	0.367940199
4017.49719	0.368159204
4015.56848	0.368377483
4013.63977	0.368595041
4011.71106	0.36768343
4009.78236	0.367901235
4007.85365	0.367296631
4005.92494	0.367213115
4003.99623	0.367430442
4002.06753	0.367647059
4000.13882	0.367563162
3998.21011	0.366965012
3996.28141	0.367181154
3994.3527	0.367396594
3992.42399	0.367611336
3990.49528	0.367825384
3988.56658	0.368038741
3986.63787	0.367149758
3984.70916	0.366559486
3982.78045	0.366479551
3980.85175	0.366693355
3978.92304	0.366906475
3976.99433	0.36632083
3975.06563	0.366533865
3973.13692	0.36645469
3971.20821	0.366666667
3969.2795	0.365795724
3967.3508	0.366007905
3965.42209	0.366219416
3963.49338	0.36643026
3961.56468	0.366352201
3959.63597	0.366562009
3957.70726	0.365987461
3955.77855	0.365910868
3953.84985	0.366120219
3951.92114	0.365549493
3949.99243	0.365758755
3948.06372	0.365967366
3946.13502	0.365116279
3944.20631	0.365325077
3942.2776	0.365250965
3940.3489	0.365177196
3938.42019	0.365103766
3936.49148	0.365310821
3934.56277	0.365030675
3932.63407	0.364471669
3930.70536	0.365164248
3928.77665	0.365369947
3926.84794	0.364535769
3924.91924	0.364741641
3922.99053	0.364188164
3921.06182	0.364393939
3919.13312	0.364599092
3917.20441	0.364048338
3915.2757	0.364457831
3913.34699	0.364114114
3911.41829	0.364044944
3909.48958	0.364248317
3907.56087	0.364248317
3905.63217	0.363772455
3903.70346	0.363500374
3901.77475	0.363704257
3899.84604	0.363365599
3897.91734	0.363501484
3895.98863	0.363905325
3894.05992	0.363367799
3892.13121	0.362831858
3890.20251	0.363033873
3888.2738	0.363235294
3886.34509	0.362968406
3884.41639	0.362903226
3882.48768	0.362838332
3880.55897	0.362773723
3878.63026	0.362445415
3876.70156	0.36238199
3874.77285	0.362119013
3872.84414	0.362844702
3870.91543	0.362581581
3868.98673	0.36251809
3867.05802	0.362193362
3865.12931	0.36213103
3863.20061	0.362068966
3861.2719	0.362464183
3859.34319	0.362401716
3857.41448	0.361945637
3855.48578	0.361549498
3853.55707	0.361290323
3851.62836	0.361368496
3849.69966	0.361445783
3847.77095	0.360875706
3845.84224	0.361326747
3843.91353	0.361071932
3841.98483	0.360817477
3840.05612	0.361267606
3838.12741	0.360759494
3836.1987	0.36115007
3834.27	0.360839161
3832.34129	0.361479414
3830.41258	0.361169102
3828.48388	0.361111111
3826.55517	0.36036036
3824.62646	0.36036036
3822.69775	0.36036036
3820.76905	0.360553633
3818.84034	0.360248447
3816.91163	0.360192837
3814.98292	0.359643102
3813.05422	0.359781122
3811.12551	0.359726962
3809.1968	0.359726962
3807.2681	0.359236537
3805.33939	0.359428182
3803.41068	0.359183673
3801.48197	0.359375
3799.55327	0.359756098
3797.62456	0.359459459
3795.69585	0.359838275
3793.76715	0.359543011
3791.83844	0.35924933
3789.90973	0.359197324
3787.98102	0.359385438
3786.05232	0.358905937
3784.12361	0.35885486
3782.1949	0.359042553
3780.26619	0.358803987
3778.33749	0.358515573
3776.40878	0.358228685
3774.48007	0.35817942
3772.55137	0.357943309
3770.62266	0.358366271
3768.69395	0.358316897
3766.76524	0.358267717
3764.83654	0.35821873
3762.90783	0.358169935
3760.97912	0.35770235
3759.05041	0.357887875
3757.12171	0.35718933
3755.193	0.357607282
3753.26429	0.357421875
3751.33559	0.357421875
3749.40688	0.356725146
3747.47817	0.356679637
3745.54946	0.356679637
3743.62076	0.356173239
3741.69205	0.356913183
3739.76334	0.356638871
3737.83464	0.356867779
3735.90593	0.355997434
3733.97722	0.356365963
3732.04851	0.356915233
3730.11981	0.356825397
3728.1911	0.356147022
3726.26239	0.356329114
3724.33368	0.356285534
3722.40498	0.356242119
3720.47627	0.355974843
3718.54756	0.355708908
3716.61886	0.355889724
3714.69015	0.355889724
3712.76144	0.355263158
3710.83273	0.355222014
3708.90403	0.355140187
3706.97532	0.355279503
3705.04661	0.355459057
3703.1179	0.355018587
3701.1892	0.35519802
3699.26049	0.355336212
3697.33178	0.355295567
3695.40308	0.354858549
3693.47437	0.354858549
3691.54566	0.354858549
3689.61695	0.354640443
3687.68825	0.354779412
3685.75954	0.354700855
3683.83083	0.354230067
3681.90213	0.354407295
3679.97342	0.354407295
3678.04471	0.354014599
3676.116	0.353621424
3674.1873	0.354191981
3672.25859	0.353939394
3670.32988	0.353297036
3668.40117	0.353437877
3666.47247	0.353153153
3664.54376	0.353505093
3662.61505	0.353680431
3660.68635	0.353257621
3658.75764	0.353257621
3656.82893	0.353046595
3654.90022	0.35301133
3652.97152	0.35301133
3651.04281	0.352238806
3649.1141	0.352625298
3647.18539	0.35255648
3645.25669	0.352488152
3643.32798	0.35262847
3641.39927	0.35259434
3639.47057	0.352179034
3637.54186	0.352352941
3635.61315	0.351938895
3633.68444	0.352526439
3631.75574	0.352145797
3629.82703	0.351971748
3627.89832	0.351525822
3625.96961	0.352046784
3624.04091	0.351808635
3622.1122	0.351808635
3620.18349	0.351225204
3618.25479	0.350815851
3616.32608	0.35078534
3614.39737	0.350377687
3612.46866	0.350174216
3610.53996	0.350551364
3608.61125	0.349942063
3606.68254	0.350289017
3604.75384	0.350634371
3602.82513	0.350230415
3600.89642	0.349827388
3598.96771	0.35
3597.03901	0.349598163
3595.1103	0.349770642
3593.18159	0.349942726
3591.25288	0.349542334
3589.32418	0.349542334
3587.39547	0.349142857
3585.46676	0.349486887
3583.53806	0.349260523
3581.60935	0.349431818
3579.68064	0.349035187
3577.75193	0.349206349
3575.82323	0.348613469
3573.89452	0.348784624
3571.96581	0.348587571
3570.0371	0.348587571
3568.1084	0.348022599
3566.17969	0.347997744
3564.25098	0.348339899
3562.32228	0.348314607
3560.39357	0.347728547
3558.46486	0.34789916
3556.53615	0.347509793
3554.60745	0.34787472
3552.67874	0.347486034
3550.75003	0.34765625
3548.82133	0.347268673
3546.89262	0.347632312
3544.96391	0.34705228
3543.0352	0.347029428
3541.1065	0.347199113
3539.17779	0.346814404
3537.24908	0.346983951
3535.32037	0.34640884
3533.39167	0.346578366
3531.46296	0.346387204
3529.53425	0.346747519
3527.60555	0.346556474
3525.67684	0.346175014
3523.74813	0.345794393
3521.81942	0.345773875
3519.89072	0.345942982
3517.96201	0.34611172
3516.0333	0.346280088
3514.10459	0.345712725
3512.17589	0.345881069
3510.24718	0.345504087
3508.31847	0.345672292
3506.38977	0.345296357
3504.46106	0.345108696
3502.53235	0.345089528
3500.60364	0.345257453
3498.67494	0.345238095
3496.74623	0.344864865
3494.81752	0.345032397
3492.88882	0.344660194
3490.96011	0.344827586
3489.0314	0.344456405
3487.10269	0.344623656
3485.17399	0.344068706
3483.24528	0.344235925
3481.31657	0.344402785
3479.38786	0.343850267
3477.45916	0.344017094
3475.53045	0.344183565
3473.60174	0.344166223
3471.67304	0.343799894
3469.74433	0.343783209
3467.81562	0.343418259
3465.88691	0.343402226
3463.95821	0.343568025
3462.0295	0.343023256
3460.10079	0.343007916
3458.17208	0.343173432
3456.24338	0.343157895
3454.31467	0.343142407
3452.38596	0.342782152
3450.45726	0.342422653
3448.52855	0.342587742
3446.59984	0.342050209
3444.67113	0.342215256
3442.74243	0.342201356
3440.81372	0.3421875
3438.88501	0.342173687
3436.95631	0.342159917
3435.0276	0.34214619
3433.09889	0.341614907
3431.17018	0.341602067
3429.24148	0.341589267
3427.31277	0.341576507
3425.38406	0.341563786
3423.45535	0.341551104
3421.52665	0.341025641
3419.59794	0.341013825
3417.66923	0.340827798
3415.74053	0.340816327
3413.81182	0.34080489
3411.88311	0.340966921
3409.9544	0.340955285
3408.0257	0.340609137
3406.09699	0.340598074
3404.16828	0.340080972
3402.23957	0.340070743
3400.31087	0.340060545
3398.38216	0.340554156
3396.45345	0.339869281
3394.52475	0.339859438
3392.59604	0.339679359
3390.66733	0.3395
3388.73862	0.339820359
3386.80992	0.339312407
3384.88121	0.339303483
3382.9525	0.339294585
3381.0238	0.339117501
3379.09509	0.339108911
3377.16638	0.339100346
3375.23767	0.339091807
3373.30897	0.338916256
3371.38026	0.338908018
3369.45155	0.338408644
3367.52284	0.338401177
3365.59414	0.338393732
3363.66543	0.338386308
3361.73672	0.338213763
3359.80802	0.338206628
3357.87931	0.337712895
3355.9506	0.33819242
3354.02189	0.338021339
3352.09319	0.338014528
3350.16448	0.337524178
3348.23577	0.337518107
3346.30706	0.337512054
3344.37836	0.3373436
3342.44965	0.337337818
3340.52094	0.337332054
3338.59224	0.336847149
3336.66353	0.336842105
3334.73482	0.336676218
3332.80611	0.336671435
3330.87741	0.336666667
3328.9487	0.336501901
3327.01999	0.33649739
3325.09129	0.336492891
3323.16258	0.336488405
3321.23387	0.336324988
3319.30516	0.336320755
3317.37646	0.336316533
3315.44775	0.336312324
3313.51904	0.336150235
3311.59033	0.335988754
3309.66163	0.335827877
3307.73292	0.335824381
3305.80421	0.335820896
3303.87551	0.335195531
3301.9468	0.335501859
3300.01809	0.335343228
3298.08938	0.335340435
3296.16068	0.334720296
3294.23197	0.334718375
3292.30326	0.335023041
3290.37455	0.335020709
3288.44585	0.334405145
3286.51714	0.33440367
3284.58843	0.334249084
3282.65973	0.334247828
3280.73102	0.334094021
3278.80231	0.333940774
3276.8736	0.333788085
3274.9449	0.333635951
3273.01619	0.334088849
3271.08748	0.333484163
3269.15878	0.333333333
3267.23007	0.333784393
3265.30136	0.333633498
3263.37265	0.333633094
3261.44395	0.333482944
3259.51524	0.333333333
3257.58653	0.333333333
3255.65782	0.333184457
3253.72912	0.333184657
3251.80041	0.333036509
3249.8717	0.332888889
3247.943	0.332445628
3246.01429	0.332446809
3244.08558	0.332300885
3242.15687	0.332155477
3240.22817	0.332157036
3238.29946	0.332012329
3236.37075	0.331868132
3234.44204	0.331724441
3232.51334	0.331581253
3230.58463	0.33187582
3228.65592	0.331877729
3226.72722	0.331734961
3224.79851	0.331592689
3222.8698	0.331160365
3220.94109	0.331019523
3219.01239	0.330879168
3217.08368	0.331171639
3215.15497	0.331031506
3213.22627	0.331034483
3211.29756	0.330895009
3209.36885	0.330756014
3207.44014	0.330904415
3205.51144	0.330479452
3203.58273	0.33034188
3201.65402	0.330204778
3199.72531	0.330208777
3197.79661	0.33007231
3195.8679	0.329936306
3193.93919	0.329800763
3192.01049	0.329665679
3190.08178	0.329531052
3188.15307	0.329957806
3186.22436	0.329823083
3184.29566	0.329268293
3182.36695	0.329135181
3180.43824	0.329002515
3178.50953	0.329288703
3176.58083	0.329156224
3174.65212	0.329024187
3172.72341	0.32889259
3170.79471	0.328345802
3168.866	0.328767123
3166.93729	0.328636552
3165.00858	0.328506413
3163.07988	0.328376704
3161.15117	0.328247423
3159.22246	0.328118567
3157.29376	0.327990136
3155.36505	0.327862126
3153.43634	0.327734535
3151.50763	0.327607362
3149.57893	0.327480604
3147.65022	0.327487765
3145.72151	0.327361564
3143.7928	0.327235772
3141.8641	0.32711039
3139.93539	0.327257999
3138.00668	0.326860841
3136.07798	0.327140549
3134.14927	0.327016129
3132.22056	0.32689211
3130.29185	0.326637204
3128.36315	0.32651424
3126.43444	0.326522436
3124.50573	0.3268
3122.57702	0.326677316
3120.64832	0.3261563
3118.71961	0.325905292
3116.7909	0.325784664
3114.8622	0.325664419
3112.93349	0.325544554
3111.00478	0.325425069
3109.07607	0.32570075
3107.14737	0.325453113
3105.21866	0.325334382
3103.28995	0.325736739
3101.36125	0.325617889
3099.43254	0.325499412
3097.50383	0.325254105
3095.57512	0.325136612
3093.64642	0.325019486
3091.71771	0.324902724
3089.789	0.324786325
3087.86029	0.324544397
3085.93159	0.324816105
3084.00288	0.324825986
3082.07417	0.324710425
3080.14547	0.32459522
3078.21676	0.324355521
3076.28805	0.323857088
3074.35934	0.323619632
3072.43064	0.32388974
3070.50193	0.323394495
3068.57322	0.32340588
3066.64451	0.323293938
3064.71581	0.323563
3062.7871	0.323451159
3060.85839	0.323216995
3058.92969	0.323106061
3057.00098	0.322995461
3055.07227	0.322763307
3053.14356	0.3226536
3051.21486	0.322544223
3049.28615	0.322932331
3047.35744	0.322822823
3045.42874	0.322713643
3043.50003	0.32260479
3041.57132	0.322496263
3039.64261	0.32238806
3037.71391	0.321787709
3035.7852	0.321680922
3033.85649	0.321574452
3031.92778	0.321587537
3029.99908	0.321481481
3028.07037	0.32137574
3026.14166	0.32127031
3024.21296	0.321165192
3022.28425	0.321178637
3020.35554	0.321073924
3018.42683	0.320969519
3016.49813	0.320983125
3014.56942	0.320879121
3012.64071	0.320775421
3010.712	0.320789185
3008.7833	0.32080292
3006.85459	0.320335277
3004.92588	0.320349472
3002.99718	0.32
3001.06847	0.32001453
2999.13976	0.320029028
2997.21105	0.319796954
2995.28235	0.319927536
2993.35364	0.319695873
2991.42493	0.319464544
2989.49623	0.319349005
2987.56752	0.31923355
2985.63881	0.31923355
2983.7101	0.31923355
2981.7814	0.318872017
2979.85269	0.31910275
2977.92398	0.31897176
2975.99527	0.319071791
2974.06657	0.318924809
2972.13786	0.318893338
2970.20915	0.318613139
2968.28045	0.318697402
2966.35174	0.318548387
2964.42303	0.31841526
2962.49432	0.318181818
2960.56562	0.318215069
2958.63691	0.318016047
2956.7082	0.317950581
2954.77949	0.317770539
2952.85079	0.317706455
2950.92208	0.317757009
2948.99337	0.317676587
2947.06467	0.317465999
2945.13596	0.317483018
2943.20725	0.317256163
2941.27854	0.317256163
2939.34984	0.316898892
2937.42113	0.317012152
2935.49242	0.316654753
2933.56372	0.316541622
2931.63501	0.316428571
2929.7063	0.316446664
2927.77759	0.316351977
2925.84889	0.316500711
2923.92018	0.316069528
2921.99147	0.316236293
2920.06276	0.315937941
2918.13406	0.31588194
2916.20535	0.31558669
2914.27664	0.315642458
2912.34794	0.315349809
2910.41923	0.315168344
2908.49052	0.315206096
2906.56181	0.315134762
2904.63311	0.315172414
2902.7044	0.315101479
2900.77569	0.315030885
2898.84698	0.314618281
2896.91828	0.314656645
2894.98957	0.314694852
2893.06086	0.314732902
2891.13216	0.314538043
2889.20345	0.314343845
2887.27474	0.314150305
2885.34603	0.314169767
2883.41733	0.313851351
2881.48862	0.313533581
2879.55991	0.313659359
2877.63121	0.313553608
2875.7025	0.313679245
2873.77379	0.313362504
2871.84508	0.313172043
2869.91638	0.312982221
2867.98767	0.31312793
2866.05896	0.312938816
2864.13025	0.312854758
2862.20155	0.31287525
2860.27284	0.312458361
2858.34413	0.312479201
2856.41543	0.312292359
2854.48672	0.312437811
2852.55801	0.312148295
2850.6293	0.312314295
2848.7006	0.3120474
2846.77189	0.311782081
2844.84318	0.31184555
2842.91447	0.311684073
2840.98577	0.311950505
2839.05706	0.311890838
2837.12835	0.311507293
2835.19965	0.31154966
2833.27094	0.311369509
2831.34223	0.311189939
2829.41352	0.311010947
2827.48482	0.31083253
2825.55611	0.31097561
2823.6274	0.310797821
2821.6987	0.31072
2819.76999	0.310642378
2817.84128	0.310465858
2815.91257	0.310289901
2813.98387	0.310213172
2812.05516	0.310038119
2810.12645	0.309961929
2808.19774	0.309885932
2806.26904	0.309810127
2804.34033	0.309734513
2802.41162	0.309659091
2800.48292	0.3092686
2798.55421	0.309096632
2796.6255	0.30902232
2794.69679	0.308851224
2792.76809	0.309090909
2790.83938	0.309016907
2788.91067	0.308943089
2786.98196	0.308773025
2785.05326	0.308387901
2783.12455	0.308315167
2781.19584	0.308553655
2779.26714	0.308385093
2777.33843	0.308098045
2775.40972	0.307930607
2773.48101	0.307858911
2771.55231	0.308096415
2769.6236	0.307716049
2767.69489	0.307644883
2765.76619	0.307573892
2763.83748	0.307503075
2761.90877	0.307432432
2759.98006	0.307361963
2758.05136	0.307291667
2756.12265	0.306915545
2754.19394	0.306845966
2752.26523	0.306776557
2750.33653	0.306707317
2748.40782	0.306638246
2746.47911	0.306569343
2744.55041	0.306500608
2742.6217	0.306432039
2740.69299	0.306363636
2738.76428	0.305992736
2736.83558	0.30592503
2734.90687	0.305857488
2732.97816	0.305790109
2731.04945	0.305722892
2729.12075	0.305655836
2727.19204	0.305588942
2725.26333	0.305522209
2723.33463	0.305364099
2721.40592	0.304998503
2719.47721	0.304932735
2717.5485	0.304867125
2715.6198	0.30480167
2713.69109	0.304438487
2711.76238	0.304373698
2709.83368	0.304309064
2707.90497	0.304244583
2705.97626	0.304180255
2704.04755	0.304116079
2702.11885	0.304052056
2700.19014	0.303988183
2698.26143	0.303924461
2696.33272	0.30386089
2694.40402	0.303797468
2692.47531	0.303734196
2690.5466	0.303671072
2688.6179	0.303314755
2686.68919	0.302959273
2684.76048	0.302897278
2682.83177	0.302746932
2680.90307	0.302685347
2678.97436	0.302623907
2677.04565	0.302562609
2675.11694	0.302501454
2673.18824	0.302440442
2671.25953	0.302379571
2669.33082	0.302318841
2667.40212	0.302258251
2665.47341	0.302285218
2663.5447	0.301848642
2661.61599	0.301788806
2659.68729	0.301729107
2657.75858	0.301669545
2655.82987	0.301610121
2653.90117	0.301550833
2651.97246	0.301491681
2650.04375	0.301432665
2648.11504	0.301087579
2646.18634	0.300943127
2644.25763	0.300884956
2642.32892	0.300541774
2640.40021	0.300484193
2638.47151	0.300426743
2636.5428	0.300454804
2634.61409	0.300113572
2632.68539	0.300340329
2630.75668	0.300283286
2628.82797	0.300226372
2626.89926	0.299886942
2624.97056	0.299830604
2623.04185	0.299689879
2621.11314	0.299633906
2619.18443	0.299578059
2617.25573	0.299522338
2615.32702	0.299186079
2613.39831	0.299130922
2611.46961	0.298992161
2609.5409	0.299020979
2607.61219	0.298966192
2605.68348	0.298828125
2603.75478	0.29877369
2601.82607	0.298719376
2599.89736	0.298387097
2597.96865	0.298416227
2596.03995	0.298362476
2594.11124	0.298308844
2592.18253	0.298172757
2590.25383	0.298119469
2588.32512	0.297790055
2586.39641	0.297737307
2584.4677	0.297684675
2582.539	0.297550234
2580.61029	0.297497938
2578.68158	0.297171107
2576.75288	0.297119342
2574.82417	0.29706769
2572.89546	0.297016151
2570.96675	0.296883543
2569.03805	0.296832332
2567.10934	0.296781233
2565.18063	0.296730245
2563.25192	0.296679369
2561.32322	0.296628603
2559.39451	0.296577947
2557.4658	0.296256104
2555.5371	0.296125711
2553.60839	0.296075778
2551.67968	0.29575561
2549.75097	0.295706184
2547.82227	0.295577131
2545.89356	0.295528017
2543.96485	0.29547901
2542.03614	0.295430108
2540.10744	0.29538131
2538.17873	0.295064378
2536.25002	0.295016077
2534.32132	0.294888948
2532.39261	0.294840952
2530.4639	0.294714362
2528.53519	0.294666667
2526.60649	0.294619073
2524.67778	0.294571581
2522.74907	0.294258373
2520.82037	0.293945831
2518.89166	0.293899204
2516.96295	0.293774834
2515.03424	0.2937285
2513.10554	0.293682263
2511.17683	0.293636124
2509.24812	0.293590082
2507.31941	0.293544137
2505.39071	0.293498289
2503.462	0.293112513
2501.53329	0.293067227
2499.60459	0.292759706
2497.67588	0.292638198
2495.74717	0.292593562
2493.81846	0.29254902
2491.88976	0.292765735
2489.96105	0.292644757
2488.03234	0.292600313
2486.10363	0.292295679
2484.17493	0.29225169
2482.24622	0.292131914
2480.31751	0.292088197
2478.38881	0.292044571
2476.4601	0.291742169
2474.53139	0.291623578
2472.60268	0.291580579
2470.67398	0.291462471
2468.74527	0.291419737
2466.81656	0.291119691
2464.88786	0.291077398
2462.95915	0.291035191
2461.03044	0.29091842
2459.10173	0.290876474
2457.17303	0.290504223
2455.24432	0.290462797
2453.31561	0.290421456
2451.3869	0.290380199
2449.4582	0.290265036
2447.52949	0.28996945
2445.60078	0.290183113
2443.67208	0.29006858
2441.74337	0.289774169
2439.81466	0.289660416
2437.88595	0.289620253
2435.95725	0.289580172
2434.02854	0.289540172
2432.09983	0.289427202
2430.17112	0.289387446
2428.24242	0.289274924
2426.31371	0.288983903
2424.385	0.288944724
2422.4563	0.288582183
2420.52759	0.288543495
2418.59888	0.288432649
2416.67017	0.288394197
2414.74147	0.288105947
2412.81276	0.287996007
2410.88405	0.287958115
2408.95535	0.287920299
2407.02664	0.287882558
2405.09793	0.28777336
2403.16922	0.287735849
2401.24052	0.287627077
2399.31181	0.287589794
2397.3831	0.287552586
2395.45439	0.28744439
2393.52569	0.287160494
2391.59698	0.287123828
2389.66827	0.287087235
2387.73957	0.286980064
2385.81086	0.286697812
2383.88215	0.286591356
2381.95344	0.286555447
2380.02474	0.286519608
2378.09603	0.286413709
2376.16732	0.286378088
2374.23861	0.286342536
2372.30991	0.286062973
2370.3812	0.286027798
2368.45249	0.285749086
2366.52379	0.285714286
2364.59508	0.285610112
2362.66637	0.285575522
2360.73766	0.285229202
2358.80896	0.285125969
2356.88025	0.285091965
2354.95154	0.284989123
2353.02284	0.284886528
2351.09413	0.28485287
2349.16542	0.284750662
2347.23671	0.284717208
2345.30801	0.284615385
2343.3793	0.284410281
2341.45059	0.284137269
2339.52188	0.284104531
2337.59318	0.284243295
2335.66447	0.28414255
2333.73576	0.284042045
2331.80706	0.284009547
2329.87835	0.283909416
2327.94964	0.283638962
2326.02093	0.283539486
2324.09223	0.283440247
2322.16352	0.283341243
2320.23481	0.283309625
2318.3061	0.282974189
2316.3774	0.282876064
2314.44869	0.282778172
2312.51998	0.282747227
2310.59128	0.282649694
2308.66257	0.282618935
2306.73386	0.28252176
2304.80515	0.282491187
2302.87645	0.282394366
2300.94774	0.282363977
2299.01903	0.282033263
2297.09033	0.282003276
2295.16162	0.281673679
2293.23291	0.281644092
2291.3042	0.281847877
2289.3755	0.281818182
2287.44679	0.281788542
2285.51808	0.281526291
2283.58937	0.281431559
2281.66067	0.281337047
2279.73196	0.281307978
2277.80325	0.281047266
2275.87455	0.280722055
2273.94584	0.280693642
2272.01713	0.280665281
2270.08842	0.280341486
2268.15972	0.280313509
2266.23101	0.280285583
2264.3023	0.280193237
2262.37359	0.280165479
2260.44489	0.280073462
2258.51618	0.280045872
2256.58747	0.279725086
2254.65877	0.279633867
2252.73006	0.279542857
2250.80135	0.279515871
2248.87264	0.279425182
2246.94394	0.2793347
2245.01523	0.279244424
2243.08652	0.279154353
2241.15782	0.279064487
2239.22911	0.278974824
2237.3004	0.278822197
2235.37169	0.278733032
2233.44299	0.278418079
2231.51428	0.27849244
2229.58557	0.278403968
2227.65686	0.278315695
2225.72816	0.27822762
2223.79945	0.278139744
2221.87074	0.278052065
2219.94204	0.277964582
2218.01333	0.277877295
2216.08462	0.277790204
2214.15591	0.277417914
2212.22721	0.277331548
2210.2985	0.277245376
2208.36979	0.277159394
2206.44108	0.277073605
2204.51238	0.276827372
2202.58367	0.276742122
2200.65496	0.276718404
2198.72626	0.276633444
2196.79755	0.276548673
2194.86884	0.276525199
2192.94013	0.276219916
2191.01143	0.276135862
2189.08272	0.276051994
2187.15401	0.276029056
2185.22531	0.276006158
2183.2966	0.275922671
2181.36789	0.275899912
2179.43918	0.275816707
2177.51048	0.275575027
2175.58177	0.275492341
2173.65306	0.275409836
2171.72435	0.27510917
2169.79565	0.27508726
2167.86694	0.275065388
2165.93823	0.274983671
2164.00953	0.274961932
2162.08082	0.27466319
2160.15211	0.274582158
2158.2234	0.274560833
2156.2947	0.274539545
2154.36599	0.274518294
2152.43728	0.274221453
2150.50857	0.274043657
2148.57987	0.274141283
2146.65116	0.273984443
2144.72245	0.273925254
2142.79375	0.273786408
2140.86504	0.273842842
2138.93633	0.273743017
2137.00762	0.273663876
2135.07892	0.273584906
2133.15021	0.273350471
2131.2215	0.273271988
2129.2928	0.273135285
2127.36409	0.273057216
2125.43538	0.272979313
2123.50667	0.272959727
2121.57797	0.272669221
2119.64926	0.272591963
2117.72055	0.272572764
2115.79184	0.272495756
2113.86314	0.27241891
2111.93443	0.272342228
2110.00572	0.272265708
2108.07702	0.27213184
2106.14831	0.27205572
2104.2196	0.271768923
2102.29089	0.271693345
2100.36219	0.271617926
2098.43348	0.271752837
2096.50477	0.271677514
2094.57606	0.271392617
2092.64736	0.271317829
2090.71865	0.271243198
2088.78994	0.27111204
2086.86124	0.271037795
2084.93253	0.270907195
2083.00382	0.270833333
2081.07511	0.270703288
2079.14641	0.270629807
2077.2177	0.27076412
2075.28899	0.270634591
2073.36029	0.270354257
2071.43158	0.270281457
2069.50287	0.270057899
2067.57416	0.270097128
2065.64546	0.270024773
2063.71675	0.26984127
2061.78804	0.269864142
2059.85933	0.269736842
2057.93063	0.269609856
2056.00192	0.269538462
2054.07321	0.269412006
2052.14451	0.269340974
2050.2158	0.269065631
2048.28709	0.268995098
2046.35838	0.268924709
2044.42968	0.268854464
2042.50097	0.268784362
2040.57226	0.268714402
2038.64355	0.268590004
2036.71485	0.268520398
2034.78614	0.26859923
2032.85743	0.268435981
2030.92873	0.268327258
2029.00002	0.268164339
2027.07131	0.267987065
2025.1426	0.267756255
2023.2139	0.26783555
2021.28519	0.267565935
2019.35648	0.2675518
2017.42778	0.267483923
2015.49907	0.267416181
2013.57036	0.267348576
2011.64165	0.267281106
2009.71295	0.267213771
2007.78424	0.267146571
2005.85553	0.267079505
2003.92682	0.267012572
2001.99812	0.266799601
2000.06941	0.266733068
1998.1407	0.266467662
1996.212	0.266454564
1994.28329	0.266242798
1992.35458	0.266282764
1990.42587	0.26621702
1988.49717	0.266098672
1986.56846	0.266033254
1984.63975	0.265822785
1982.71104	0.265810277
1980.78234	0.265745311
1978.85363	0.265732886
1976.92492	0.265668112
1974.99622	0.26565577
1973.06751	0.265394452
1971.1388	0.265185768
1969.21009	0.264977411
1967.28139	0.264769382
1965.35268	0.264705882
1963.42397	0.264602117
1961.49527	0.26466549
1959.56656	0.264636542
1957.63785	0.264469296
1955.70914	0.264372311
1953.78044	0.264390244
1951.85173	0.26427597
1949.92302	0.264018692
1947.99431	0.263956429
1946.06561	0.263699961
1944.1369	0.26354632
1942.20819	0.263535804
1940.27949	0.263565891
1938.35078	0.263402361
1936.42207	0.263341067
1934.49336	0.263279892
1932.56466	0.263025859
1930.63595	0.262965105
1928.70724	0.262955115
1926.77853	0.26294514
1924.84983	0.262793382
1922.92112	0.262591311
1920.99241	0.262439962
1919.06371	0.262480799
1917.135	0.262420871
1915.20629	0.262401839
1913.27758	0.262241775
1911.34888	0.262091378
1909.42017	0.261891117
1907.49146	0.261832061
1905.56276	0.261723218
1903.63405	0.261664445
1901.70534	0.261845861
1899.77663	0.261646701
1897.84793	0.261447843
1895.91922	0.261298899
1893.99051	0.261100569
1892.0618	0.26109215
1890.1331	0.260943718
1888.20439	0.260886028
1886.27568	0.260779123
1884.34698	0.260672459
1882.41827	0.260664402
1880.48956	0.260656356
1878.56085	0.260459857
1876.63215	0.260451977
1874.70344	0.26044411
1872.77473	0.26029716
1870.84602	0.260109084
1868.91732	0.260060173
1866.98861	0.259906103
1865.0599	0.25984252
1863.1312	0.259737828
1861.20249	0.259681946
1859.27378	0.259487755
1857.34507	0.259245424
1855.41637	0.259190147
1853.48766	0.259134974
1851.55895	0.259128167
1849.63025	0.259031657
1847.70154	0.259031657
1845.77283	0.258941878
1843.84412	0.258749069
1841.91542	0.258639911
1839.98671	0.258716617
1838.058	0.258614302
1836.12929	0.258607923
1834.20059	0.258464385
1832.27188	0.258279371
1830.34317	0.258279371
1828.41447	0.258040665
1826.48576	0.257987073
1824.55705	0.257701531
1822.62834	0.257737657
1820.69964	0.2576371
1818.77093	0.257631482
1816.84222	0.257489432
1814.91351	0.257531227
1812.98481	0.25748393
1811.0561	0.257436651
1809.12739	0.257247706
1807.19869	0.257011916
1805.26998	0.25691772
1803.34127	0.256781525
1801.41256	0.256461962
1799.48386	0.25659824
1797.55515	0.25664041
1795.62644	0.256687431
1793.69774	0.256508984
1791.76903	0.256372639
1789.84032	0.256274043
1787.91161	0.256269449
1785.98291	0.255950201
1784.0542	0.255813953
1782.12549	0.255630837
1780.19678	0.255584035
1778.26808	0.255584035
1776.33937	0.255494505
1774.41066	0.255455712
1772.48196	0.255506608
1770.55325	0.255459717
1768.62454	0.255178735
1766.69583	0.255128205
1764.76713	0.255034786
1762.83842	0.254991757
1760.90971	0.25494868
1758.981	0.254812099
1757.0523	0.25481563
1755.12359	0.254729109
1753.19488	0.254555494
1751.26618	0.254474995
1749.33747	0.254296803
1747.40876	0.254252959
1745.48005	0.254118083
1743.55135	0.254077094
1741.62264	0.254083148
1739.69393	0.253947613
1737.76523	0.253997769
1735.83652	0.253912072
1733.90781	0.253728561
1731.9791	0.253628582
1730.0504	0.25347931
1728.12169	0.253518519
1726.19298	0.253466445
1724.26427	0.253323486
1722.33557	0.253227591
1720.40686	0.253043158
1718.47815	0.252905368
1716.54945	0.252763449
1714.62074	0.252708907
1712.69203	0.252654705
1710.76332	0.252648886
1708.83462	0.252508666
1706.90591	0.252506837
1704.9772	0.252459016
1703.04849	0.252230923
1701.11979	0.251958462
1699.19108	0.251773695
1697.26237	0.251678461
1695.33367	0.251764706
1693.40496	0.25175961
1691.47625	0.251621037
1689.54754	0.251485149
1687.61884	0.251395642
1685.69013	0.251352326
1683.76142	0.251172016
1681.83272	0.251079914
1679.90401	0.251122687
1677.9753	0.251077586
1676.04659	0.25080848
1674.11789	0.250763427
1672.18918	0.25067337
1670.26047	0.250538793
1668.33176	0.250448511
1666.40306	0.250403009
1664.47435	0.250358166
1662.54564	0.250179083
1660.61694	0.25
1658.68823	0.249910555
1656.75952	0.249776026
1654.83081	0.249730313
1652.90211	0.249640029
1650.9734	0.249506018
1649.04469	0.249551489
1647.11598	0.249416831
1645.18728	0.249462366
1643.25857	0.249373882
1641.32986	0.249195567
1639.40116	0.248971561
1637.47245	0.248835543
1635.54374	0.24874552
1633.61503	0.248702809
1631.68633	0.248794428
1629.75762	0.24875
1627.82891	0.248481601
1625.90021	0.248391708
1623.9715	0.248257373
1622.04279	0.248347329
1620.11408	0.248258618
1618.18538	0.248168662
1616.25667	0.24812433
1614.32796	0.247992864
1612.39925	0.247905899
1610.47055	0.247727678
1608.54184	0.247727678
1606.61313	0.247639409
1604.68443	0.247729297
1602.75572	0.247463059
1600.82701	0.247374978
1598.8983	0.247242974
1596.9696	0.24715505
1595.04089	0.247200995
1593.11218	0.247202983
1591.18347	0.247117261
1589.25477	0.247031721
1587.32606	0.246990085
1585.39735	0.246948523
1583.46865	0.246730293
1581.53994	0.246732603
1579.61123	0.246689034
1577.68252	0.246422893
1575.75382	0.246248897
1573.82511	0.246210786
1571.8964	0.2461701
1569.96769	0.2461701
1568.03899	0.246042912
1566.11028	0.245872849
1564.18157	0.245918905
1562.25287	0.245651028
1560.32416	0.24559549
1558.39545	0.245505816
1556.46674	0.245385832
1554.53804	0.245355766
1552.60933	0.245319335
1550.68062	0.24527972
1548.75192	0.245236847
1546.82321	0.245147753
1544.8945	0.245008757
1542.96579	0.244736842
1541.03709	0.244690188
1539.10838	0.244787104
1537.17967	0.24475891
1535.25096	0.244634444
1533.32226	0.244506453
1531.39355	0.244425087
1529.46484	0.244254875
1527.53614	0.244208326
1525.60743	0.244204288
1523.67872	0.244153578
1521.75001	0.24392801
1519.82131	0.243974852
1517.8926	0.243893929
1515.96389	0.243855674
1514.03518	0.243728223
1512.10648	0.243638899
1510.17777	0.243413017
1508.24906	0.243229076
1506.32036	0.243408416
1504.39165	0.243384401
1502.46294	0.243398193
1500.53423	0.243309002
1498.60553	0.243215031
1496.67682	0.243083348
1494.74811	0.243045897
1492.81941	0.242872045
1490.8907	0.242819843
1488.96199	0.24273028
1487.03328	0.242650896
1485.10458	0.242529534
1483.17587	0.242445294
1481.24716	0.242313705
1479.31845	0.242176634
1477.38975	0.24203378
1475.46104	0.242059337
1473.53233	0.24200035
1471.60363	0.241952414
1469.67492	0.241910093
1467.74621	0.241904428
1465.8175	0.241675429
1463.8888	0.241584853
1461.96009	0.241627214
1460.03138	0.241391427
1458.10267	0.241282142
1456.17397	0.241239655
1454.24526	0.241173371
1452.31655	0.241234222
1450.38785	0.240974413
1448.45914	0.240932189
1446.53043	0.24093854
1444.60172	0.240727782
1442.67302	0.240734266
1440.74431	0.240643582
1438.8156	0.240455342
1436.8869	0.24039979
1434.95819	0.240406518
1433.02948	0.240329074
1431.10077	0.240329074
1429.17207	0.240154035
1427.24336	0.240154035
1425.31465	0.239929947
1423.38594	0.239831697
1421.45724	0.239726027
1419.52853	0.239619986
1417.59982	0.23966215
1415.67112	0.239669421
1413.74241	0.239535702
1411.8137	0.239528335
1409.88499	0.239387
1407.95629	0.239421721
1406.02758	0.239280042
1404.09887	0.239095886
1402.17016	0.239088178
1400.24146	0.239122745
1398.31275	0.23907273
1396.38404	0.238895771
1394.45534	0.238903625
1392.52663	0.238784882
1390.59792	0.238834951
1388.66921	0.238784882
1386.74051	0.238650415
1384.8118	0.238524011
1382.88309	0.238574202
1380.95439	0.238490034
1379.02568	0.238447972
1377.09697	0.238313636
1375.16826	0.238221281
1373.23956	0.238179252
1371.31085	0.238095238
1369.38214	0.237834979
1367.45343	0.237793055
1365.52473	0.237658674
1363.59602	0.237700582
1361.66731	0.237574903
1359.73861	0.237541821
1357.8099	0.237467018
1355.88119	0.237517581
1353.95248	0.237258348
1352.02378	0.237133322
1350.09507	0.236966825
1348.16636	0.237017544
1346.23765	0.236892863
1344.30895	0.236943568
1342.38024	0.236726827
1340.45153	0.236551603
1338.52283	0.236468734
1336.59412	0.236436822
1334.66541	0.236363636
1332.7367	0.236331878
1330.808	0.236382682
1328.87929	0.236258943
1326.95058	0.236002093
1325.02188	0.236002093
1323.09317	0.235827664
1321.16446	0.235694348
1319.23575	0.235602094
1317.30705	0.235468668
1315.37834	0.235376288
1313.44963	0.235283843
1311.52092	0.235150245
1309.59222	0.235191333
1307.66351	0.235057672
1305.7348	0.234831264
1303.8061	0.234954514
1301.87739	0.234727814
1299.94868	0.234717113
1298.01997	0.234706398
1296.09127	0.23452026
1294.16256	0.23433386
1292.23385	0.23436402
1290.30514	0.234259585
1288.37644	0.234113712
1286.44773	0.234008811
1284.51902	0.233903687
1282.59032	0.234016249
1280.66161	0.233816767
1278.7329	0.233793836
1276.80419	0.233676366
1274.87549	0.2336
1272.94678	0.233606557
1271.01807	0.233422699
1269.08937	0.23326754
1267.16066	0.233098972
1265.23195	0.232971014
1263.30324	0.232951446
1261.37454	0.232744491
1259.44583	0.232757052
1257.51712	0.23275236
1255.58841	0.232705541
1253.65971	0.232465654
1251.731	0.232297688
1249.80229	0.232117052
1247.87359	0.232104121
1245.94488	0.232175172
1244.01617	0.231926074
1242.08746	0.231857765
1240.15876	0.231565565
1238.23005	0.231538741
1236.30134	0.23151184
1234.37263	0.231344645
1232.44393	0.231134661
1230.51522	0.230966325
1228.58651	0.230797434
1226.65781	0.230811605
1224.7291	0.230641898
1222.80039	0.230471629
1220.87168	0.23052787
1218.94298	0.230399408
1217.01427	0.2300426
1215.08556	0.229955457
1213.15686	0.229639271
1211.22815	0.22940738
1209.29944	0.229318394
1207.37073	0.229084784
1205.44203	0.229037704
1203.51332	0.228990412
1201.58461	0.228754475
1199.6559	0.228706327
1197.7272	0.228657959
1195.79849	0.228609372
1193.86978	0.228370413
1191.94108	0.22813036
1190.01237	0.227845684
1188.08366	0.227646946
1186.15495	0.227490881
1184.22625	0.227185214
1182.29754	0.226965424
1180.36883	0.226850058
1178.44012	0.226513975
1176.51142	0.226327046
1174.58271	0.226139462
1172.654	0.22603943
1170.7253	0.225787517
1168.79659	0.225730535
1166.86788	0.225521038
1164.93917	0.225310467
1163.01047	0.225054337
1161.08176	0.224841521
1159.15305	0.224781573
1157.22435	0.224566992
1155.29564	0.224396087
1153.36693	0.224068883
1151.43822	0.22394055
1149.50952	0.223655047
1147.58081	0.223412859
1145.6521	0.223169
1143.72339	0.222674537
1141.79469	0.222585256
1139.86598	0.222153972
1137.93727	0.22181146
1136.00857	0.221466831
1134.07986	0.221004755
1132.15115	0.220746888
1130.22244	0.220116618
1128.29374	0.2195734
1126.36503	0.219025619
1124.43632	0.218776371
1122.50761	0.21810089
1120.57891	0.217678381
1118.6502	0.217084136
1116.72149	0.216698946
1114.79279	0.216356556
1112.86408	0.215792908
1110.93537	0.215317287
1109.00666	0.214836011
1107.07796	0.214443952
1105.14925	0.214174281
1103.22054	0.214125561
1101.29184	0.213754228
1099.36313	0.213460231
1097.43442	0.213196815
1095.50571	0.213013699
1093.57701	0.212960843
1091.6483	0.212677997
1089.71959	0.212393458
1087.79088	0.212156228
1085.86218	0.211832947
1083.93347	0.211556384
1082.00476	0.211326937
1080.07606	0.211045828
1078.14735	0.2107126
1076.21864	0.210326859
1074.28993	0.210076046
1072.36123	0.209911842
1070.43252	0.209457846
1068.50381	0.209241082
1066.5751	0.208833413
1064.6464	0.208423586
1062.71769	0.208303162
1060.78898	0.207889642
1058.86028	0.207373272
1056.93157	0.206896552
1055.00286	0.206368498
1053.07415	0.20598249
1051.14545	0.205596107
1049.21674	0.205259313
1047.28803	0.204922027
1045.35933	0.204584248
1043.43062	0.204245974
1041.50191	0.203663004
1039.5732	0.203128819
1037.6445	0.20278865
1035.71579	0.202252693
1033.78708	0.201911296
1031.85837	0.201324179
1029.92967	0.200981595
1028.00096	0.20054001
1026.07225	0.2
1024.14355	0.199607651
1022.21484	0.198922097
1020.28613	0.198237885
1018.35742	0.197555012
1016.42872	0.197069597
1014.50001	0.19653743
1012.5713	0.195959104
1010.64259	0.195335277
1008.71389	0.194666667
1006.78518	0.194047907
1004.85647	0.193088449
1002.92777	0.192177692
1000.99906	0.191602317
999.07035	0.191073583
997.14164	0.190591074
995.21294	0.189913127
993.28423	0.18932625
991.35552	0.188542422
989.42682	0.187802517
987.49811	0.186909091
985.5694	0.185860058
983.64069	0.185140073
981.71199	0.184506354
979.78328	0.183958793
977.85457	0.183296378
975.92586	0.182628062
973.99716	0.181953766
972.06845	0.181432493
970.13974	0.180771157
968.21104	0.180060271
966.28233	0.179003021
964.35362	0.178192832
962.42491	0.177378543
960.49621	0.176858665
958.5675	0.176081425
956.63879	0.175389329
954.71008	0.174737382
952.78138	0.174170311
950.85267	0.173385013
948.92396	0.172422747
946.99526	0.17158527
945.06655	0.170872766
943.13784	0.170240932
941.20913	0.169423693
939.28043	0.168684423
937.35172	0.167752443
935.42301	0.167169087
933.49431	0.166574433
931.5656	0.16568874
929.63689	0.16464618
927.70818	0.163822526
925.77948	0.162890737
923.85077	0.162185603
921.92206	0.161177499
919.99335	0.160493827
918.06465	0.159549229
916.13594	0.158886894
914.20723	0.158006042
912.27853	0.157155935
910.34982	0.156384948
908.42111	0.155694228
906.4924	0.155085281
904.5637	0.15478094
902.63499	0.154045307
900.70628	0.153191489
898.77757	0.152116402
896.84887	0.151585977
894.92016	0.150708024
892.99145	0.150255537
891.06275	0.149793388
889.13404	0.148973199
887.20533	0.148539247
885.27662	0.147686833
883.34792	0.147175243
881.41921	0.146341463
879.4905	0.145748988
877.5618	0.145089286
875.63309	0.144628099
873.70438	0.144427597
871.77567	0.144058082
869.84697	0.143627262
867.91826	0.143134213
865.98955	0.142243064
864.06084	0.142125984
862.13214	0.14200714
860.20343	0.141829804
858.27472	0.141649899
856.34602	0.141004862
854.41731	0.140350877
852.4886	0.140098603
850.55989	0.140140554
848.63119	0.14012474
846.70248	0.139632107
844.77377	0.13961312
842.84506	0.139475909
840.91636	0.139337298
838.98765	0.139683896
837.05894	0.139544869
835.13024	0.13897281
833.20153	0.13876843
831.27282	0.138937282
829.34411	0.139046786
827.41541	0.139279438
825.4867	0.139514349
823.55799	0.140257435
821.62929	0.140499554
819.70058	0.140681004
817.77187	0.14080072
815.84316	0.140985088
813.91446	0.141625057
811.98575	0.142791971
810.05704	0.14351215
808.12833	0.144239631
806.19963	0.144907407
804.27092	0.145446097
802.34221	0.145920746
800.41351	0.147127511
798.4848	0.148200094
796.55609	0.149602618
794.62738	0.15046729
792.69868	0.151260504
790.76997	0.152518657
788.84126	0.153702841
786.91255	0.155027933
784.98385	0.156744186
783.05514	0.158066016
781.12643	0.159925616
779.19773	0.161245353
777.26902	0.162488394
775.34031	0.164733179
773.4116	0.166357739
771.4829	0.168362627
769.55419	0.170438799
767.62548	0.17204797
765.69678	0.174193548
763.76807	0.17587477
761.83936	0.177552898
759.91065	0.179392824
757.98195	0.181692732
756.05324	0.183617119
754.12453	0.185168125
752.19582	0.186432856
750.26712	0.187615527
748.33841	0.188888889
746.4097	0.19025522
744.481	0.191717078
742.55229	0.192720485
740.62358	0.194197473
738.69487	0.195213515
736.76617	0.196327684
734.83746	0.197449221
732.90875	0.198672357
730.98004	0.199904807
729.05134	0.201146679
727.12263	0.202015355
725.19392	0.203087313
723.26522	0.203587009
721.33651	0.204578665
719.4078	0.205190989
717.47909	0.206302314
715.55039	0.206930693
713.62168	0.207068193
711.69297	0.207310966
709.76427	0.208165323
707.83556	0.209030949
705.90685	0.209397344
703.97814	0.209254499
702.04944	0.209627329
700.12073	0.209375
698.19202	0.20975354
696.26331	0.209720021
694.33461	0.210218201
692.4059	0.210187668
690.47719	0.21027027
688.54849	0.210354223
686.61978	0.21055525
684.69107	0.210993892
682.76236	0.21132287
680.83366	0.211538462
678.90495	0.211187215
676.97624	0.210829493
675.04753	0.210587551
673.11883	0.21092832
671.19012	0.210682493
669.26141	0.211031175
667.33271	0.210781345
665.404	0.211009174
663.47529	0.210754017
661.54658	0.211118051
659.61788	0.210725552
657.68917	0.210459184
655.76046	0.210831721
653.83176	0.211074919
651.90305	0.210664911
649.97434	0.210386152
648.04563	0.210774411
646.11693	0.21102791
644.18822	0.210851648
642.25951	0.211365211
640.3308	0.211188811
638.4021	0.211864407
636.47339	0.211277659
634.54468	0.210526316
632.61598	0.210065646
630.68727	0.209594096
628.75856	0.209424084
626.82985	0.209249431
624.90115	0.208141321
622.97244	0.207782101
621.04373	0.207249803
619.11502	0.206703911
617.18632	0.206952304
615.25761	0.206868357
613.3289	0.206270627
611.4002	0.206151288
609.47149	0.206030151
607.54278	0.206925676
605.61407	0.206984668
603.68537	0.206866953
601.75666	0.207105719
