4999.20917	0.271028037
4997.28046	0.269767442
4995.35176	0.269141531
4993.42305	0.270833333
4991.49434	0.270207852
4989.56564	0.269585253
4987.63693	0.268965517
4985.70822	0.270642202
4983.77951	0.270022883
4981.85081	0.269406393
4979.9221	0.268792711
4977.99339	0.268181818
4976.06468	0.267573696
4974.13598	0.26984127
4972.20727	0.269230769
4970.27856	0.27027027
4968.34986	0.26741573
4966.42115	0.266816143
4964.49244	0.268456376
4962.56373	0.267857143
4960.63503	0.267260579
4958.70632	0.268888889
4956.77761	0.268292683
4954.8489	0.267699115
4952.9202	0.267108168
4950.99149	0.266519824
4949.06278	0.268131868
4947.13408	0.26754386
4945.20537	0.266958425
4943.27666	0.266375546
4941.34795	0.265795207
4939.41925	0.267391304
4937.49054	0.26681128
4935.56183	0.266233766
4933.63313	0.267818575
4931.70442	0.267241379
4929.77571	0.268817204
4927.847	0.268240343
4925.9183	0.267665953
4923.98959	0.26652452
4922.06088	0.265957447
4920.13217	0.265957447
4918.20347	0.264830508
4916.27476	0.266384778
4914.34605	0.265822785
4912.41735	0.265263158
4910.48864	0.264705882
4908.55993	0.266247379
4906.63122	0.265690377
4904.70252	0.266666667
4902.77381	0.266112266
4900.8451	0.265560166
4898.91639	0.265010352
4896.98769	0.265010352
4895.05898	0.266528926
4893.13027	0.265979381
4891.20157	0.264887064
4889.27286	0.264344262
4887.34415	0.263803681
4885.41544	0.265306122
4883.48674	0.264765784
4881.55803	0.264227642
4879.62932	0.265720081
4877.70062	0.265182186
4875.77191	0.264646465
4873.8432	0.264112903
4871.91449	0.265060241
4869.98579	0.264529058
4868.05708	0.264
4866.12837	0.262948207
4864.19966	0.262425447
4862.27096	0.263888889
4860.34225	0.263366337
4858.41354	0.26284585
4856.48484	0.263779528
4854.55613	0.263779528
4852.62742	0.263261297
4850.69871	0.264187867
4848.77001	0.263671875
4846.8413	0.263157895
4844.91259	0.262645914
4842.98388	0.26407767
4841.05518	0.263565891
4839.12647	0.262548263
4837.19776	0.263969171
4835.26906	0.263461538
4833.34035	0.262955854
4831.41164	0.264367816
4829.48293	0.263862333
4827.55423	0.262857143
4825.62552	0.262357414
4823.69681	0.261859583
4821.76811	0.261363636
4819.8394	0.262759924
4817.91069	0.262264151
4815.98198	0.263653484
4814.05328	0.262664165
4812.12457	0.262172285
4810.19586	0.261682243
4808.26715	0.262569832
4806.33845	0.262081784
4804.40974	0.261595547
4802.48103	0.261111111
4800.55233	0.260628466
4798.62362	0.26199262
4796.69491	0.261029412
4794.7662	0.260550459
4792.8375	0.261904762
4790.90879	0.26142596
4788.98008	0.260948905
4787.05137	0.26
4785.12267	0.261343013
4783.19396	0.260869565
4781.26525	0.26039783
4779.33655	0.261261261
4777.40784	0.260791367
4775.47913	0.26032316
4773.55042	0.259391771
4771.62172	0.260714286
4769.69301	0.260249554
4767.7643	0.259786477
4765.8356	0.258865248
4763.90689	0.260176991
4761.97818	0.259717314
4760.04947	0.261022928
4758.12077	0.260105448
4756.19206	0.259649123
4754.26335	0.259194396
4752.33464	0.258289703
4750.40594	0.259581882
4748.47723	0.259130435
4746.54852	0.258232236
4744.61982	0.259515571
4742.69111	0.259067358
4740.7624	0.25862069
4738.83369	0.259450172
4736.90499	0.258561644
4734.97628	0.258119658
4733.04757	0.259385666
4731.11886	0.258943782
4729.19016	0.258064516
4727.26145	0.257627119
4725.33274	0.257191201
4723.40404	0.258445946
4721.47533	0.258010118
4719.54662	0.257142857
4717.61791	0.258389262
4715.68921	0.257956449
4713.7605	0.257525084
4711.83179	0.258333333
4709.90308	0.257903494
4707.97438	0.257048093
4706.04567	0.256622517
4704.11696	0.257425743
4702.18826	0.257001647
4700.25955	0.256578947
4698.33084	0.257799672
4696.40213	0.25695581
4694.47343	0.256117455
4692.54472	0.255700326
4690.61601	0.256910569
4688.68731	0.256077796
4686.7586	0.25566343
4684.82989	0.256865913
4682.90118	0.256038647
4680.97248	0.25562701
4679.04377	0.254807692
4677.11506	0.256
4675.18635	0.255591054
4673.25765	0.25477707
4671.32894	0.255961844
4669.40023	0.255150555
4667.47153	0.256329114
4665.54282	0.255924171
4663.61411	0.255520505
4661.6854	0.254716981
4659.7567	0.253918495
4657.82799	0.255086072
4655.89928	0.2546875
4653.97057	0.254290172
4652.04187	0.255054432
4650.11316	0.254263566
4648.18445	0.253869969
4646.25575	0.255023184
4644.32704	0.254237288
4642.39833	0.255384615
4640.46962	0.254601227
4638.54092	0.254211332
4636.61221	0.253435115
4634.6835	0.25304878
4632.7548	0.254185693
4630.82609	0.253414264
4628.89738	0.254545455
4626.96867	0.254160363
4625.03997	0.253393665
4623.11126	0.254518072
4621.18255	0.253753754
4619.25384	0.252994012
4617.32514	0.252615845
4615.39643	0.251862891
4613.46772	0.25297619
4611.53902	0.252225519
4609.61031	0.253333333
4607.6816	0.252584934
4605.75289	0.253313697
4603.82419	0.252941176
4601.89548	0.254038179
4599.96677	0.25329429
4598.03806	0.252923977
4596.10936	0.252554745
4594.18065	0.251819505
4592.25194	0.252906977
4590.32324	0.252173913
4588.39453	0.251445087
4586.46582	0.252525253
4584.53711	0.251798561
4582.60841	0.251436782
4580.6797	0.250716332
4578.75099	0.250357654
4576.82229	0.251428571
4574.89358	0.250712251
4572.96487	0.251420455
4571.03616	0.25106383
4569.10746	0.251768034
4567.17875	0.251412429
4565.25004	0.250704225
4563.32133	0.250351617
4561.39263	0.251051893
4559.46392	0.25034965
4557.53521	0.251396648
4555.60651	0.250696379
4553.6778	0.250347705
4551.74909	0.25
4549.82038	0.250692521
4547.89168	0.25
4545.96297	0.251034483
4544.03426	0.250343879
4542.10555	0.25
4540.17685	0.250684932
4538.24814	0.25
4536.31943	0.249658936
4534.39073	0.248979592
4532.46202	0.25
4530.53331	0.249322493
4528.6046	0.248648649
4526.6759	0.249662618
4524.74719	0.248990579
4522.81848	0.248655914
4520.88978	0.249329759
4518.96107	0.248663102
4517.03236	0.248331108
4515.10365	0.249333333
4513.17495	0.248670213
4511.24624	0.248339973
4509.31753	0.249006623
4507.38882	0.248348745
4505.46012	0.249011858
4503.53141	0.248357424
4501.6027	0.248031496
4499.674	0.248691099
4497.74529	0.248366013
4495.81658	0.249022164
4493.88787	0.248697917
4491.95917	0.248051948
4490.03046	0.247409326
4488.10175	0.246770026
4486.17304	0.247741935
4484.24434	0.247104247
4482.31563	0.246786632
4480.38692	0.247435897
4478.45822	0.247119078
4476.52951	0.247765006
4474.6008	0.247133758
4472.67209	0.247776366
4470.74339	0.247461929
4468.81468	0.246835443
4466.88597	0.246212121
4464.95727	0.247162673
4463.02856	0.246540881
4461.09985	0.245922208
4459.17114	0.246558198
4457.24244	0.24625
4455.31373	0.24563591
4453.38502	0.246268657
4451.45631	0.245962733
4449.52761	0.246592317
4447.5989	0.245982695
4445.67019	0.245679012
4443.74149	0.246305419
4441.81278	0.245700246
4439.88407	0.246625767
4437.95536	0.246022032
4436.02666	0.245421245
4434.09795	0.245121951
4432.16924	0.245742092
4430.24053	0.245145631
4428.31183	0.244552058
4426.38312	0.245465538
4424.45441	0.244873341
4422.52571	0.245487365
4420.597	0.244897959
4418.66829	0.244311377
4416.73958	0.244019139
4414.81088	0.244630072
4412.88217	0.244047619
4410.95346	0.244655582
4409.02476	0.244365362
4407.09605	0.244970414
4405.16734	0.244391972
4403.23863	0.243816254
4401.30993	0.244418331
4399.38122	0.243845252
4397.45251	0.244444444
4395.5238	0.244158879
4393.5951	0.243589744
4391.66639	0.24330617
4389.73768	0.243902439
4387.80898	0.243337196
4385.88027	0.243055556
4383.95156	0.243648961
4382.02285	0.243087558
4380.09415	0.242528736
4378.16544	0.243119266
4376.23673	0.242562929
4374.30802	0.243150685
4372.37932	0.244013683
4370.45061	0.243458476
4368.5219	0.242905789
4366.5932	0.242355606
4364.66449	0.24180791
4362.73578	0.242390079
4360.80707	0.241844769
4358.87837	0.242424242
4356.94966	0.241881299
4355.02095	0.241340782
4353.09225	0.241071429
4351.16354	0.241648107
4349.23483	0.241111111
4347.30612	0.241685144
4345.37742	0.242256637
4343.44871	0.241721854
4341.52	0.242290749
4339.59129	0.242024202
4337.66259	0.241492865
4335.73388	0.242059146
4333.80517	0.241530055
4331.87647	0.241003272
4329.94776	0.240478781
4328.01905	0.241304348
4326.09034	0.240780911
4324.16164	0.24025974
4322.23293	0.240560949
4320.30422	0.240301724
4318.37551	0.240860215
4316.44681	0.240343348
4314.5181	0.240899358
4312.58939	0.240384615
4310.66069	0.239872068
4308.73198	0.240425532
4306.80327	0.240170032
4304.87456	0.239660657
4302.94586	0.24021164
4301.01715	0.239704329
4299.08844	0.239199157
4297.15974	0.239747634
4295.23103	0.239244491
4293.30232	0.239790576
4291.37361	0.239289446
4289.44491	0.23983316
4287.5162	0.239334027
4285.58749	0.238836968
4283.65878	0.239378238
4281.73008	0.238883144
4279.80137	0.239422085
4277.87266	0.238928939
4275.94396	0.23946557
4274.01525	0.238974359
4272.08654	0.238485159
4270.15783	0.239019408
4268.22913	0.23853211
4266.30042	0.23906409
4264.37171	0.238821138
4262.443	0.238336714
4260.5143	0.237854251
4258.58559	0.238383838
4256.65688	0.237903226
4254.72818	0.238430584
4252.79947	0.237951807
4250.87076	0.238476954
4248.94205	0.237762238
4247.01335	0.237288136
4245.08464	0.237810945
4243.15593	0.23733863
4241.22723	0.236868186
4239.29852	0.237388724
4237.36981	0.236920039
4235.4411	0.237438424
4233.5124	0.236971485
4231.58369	0.236506379
4229.65498	0.237022527
4227.72627	0.237536657
4225.79757	0.237073171
4223.86886	0.23661149
4221.94015	0.237123421
4220.01145	0.236663434
4218.08274	0.237173282
4216.15403	0.236714976
4214.22532	0.237222758
4212.29662	0.236538462
4210.36791	0.236084453
4208.4392	0.235632184
4206.51049	0.236137667
4204.58179	0.235687023
4202.65308	0.236190476
4200.72437	0.235741445
4198.79567	0.235294118
4196.86696	0.235795455
4194.93825	0.236071766
4193.00954	0.235626767
4191.08084	0.236124177
4189.15213	0.235680751
4187.22342	0.235238988
4185.29472	0.234798877
4183.36601	0.235294118
4181.4373	0.234855545
4179.50859	0.235348837
4177.57989	0.234693878
4175.65118	0.235185185
4173.72247	0.234750462
4171.79376	0.234317343
4169.86506	0.233670653
4167.93635	0.23415978
4166.00764	0.233944954
4164.07894	0.234432234
4162.15023	0.234703196
4160.22152	0.234275296
4158.29281	0.234758872
4156.36411	0.234332425
4154.4354	0.234814143
4152.50669	0.234177215
4150.57798	0.233754513
4148.64928	0.234234234
4146.72057	0.23381295
4144.79186	0.233183857
4142.86316	0.233661594
4140.93445	0.233243968
4139.00574	0.233719893
4137.07703	0.233303651
4135.14833	0.232888889
4133.21962	0.233156028
4131.29091	0.232743363
4129.36221	0.233215548
4127.4335	0.233480176
4125.50479	0.233069481
4123.57608	0.232660228
4121.64738	0.233128834
4119.71867	0.23272091
4117.78996	0.233187773
4115.86125	0.232578397
4113.93255	0.233043478
4112.00384	0.232638889
4110.07513	0.232235702
4108.14643	0.232698962
4106.21772	0.232096635
4104.28901	0.232358003
4102.3603	0.232817869
4100.4316	0.232418525
4098.50289	0.232020548
4096.57418	0.232478632
4094.64547	0.232081911
4092.71677	0.231686542
4090.78806	0.231945624
4088.85935	0.231552163
4086.93065	0.231810491
4085.00194	0.231418919
4083.07323	0.231871838
4081.14452	0.231286796
4079.21582	0.230898405
4077.28711	0.231155779
4075.3584	0.230769231
4073.4297	0.231218698
4071.50099	0.231473772
4069.57228	0.231088944
4067.64357	0.230705394
4065.71487	0.231151616
4063.78616	0.230769231
4061.85745	0.230388109
4059.92874	0.230642504
4058.00004	0.230263158
4056.07133	0.230516817
4054.14262	0.23013923
4052.21392	0.230392157
4050.28521	0.230016313
4048.3565	0.229641694
4046.42779	0.229894395
4044.49909	0.229521492
4042.57038	0.229773463
4040.64167	0.230210016
4038.71296	0.22983871
4036.78426	0.22928399
4034.85555	0.229718876
4032.92684	0.229350441
4030.99814	0.2296
4029.06943	0.229233227
4027.14072	0.229665072
4025.21201	0.229116945
4023.28331	0.22954726
4021.3546	0.229183188
4019.42589	0.22943038
4017.49719	0.22906793
4015.56848	0.228526399
4013.63977	0.228773585
4011.71106	0.228414443
4009.78236	0.228660924
4007.85365	0.228303362
4005.92494	0.227769111
4003.99623	0.228193146
4002.06753	0.228615863
4000.13882	0.228083786
3998.21011	0.228505035
3996.28141	0.228151585
3994.3527	0.228571429
3992.42399	0.228043143
3990.49528	0.228285934
3988.56658	0.227935533
3986.63787	0.228177642
3984.70916	0.227828746
3982.78045	0.228070175
3980.85175	0.227722772
3978.92304	0.228136882
3976.99433	0.227617602
3975.06563	0.227272727
3973.13692	0.227513228
3971.20821	0.226998492
3969.2795	0.227409639
3967.3508	0.22689707
3965.42209	0.226556639
3963.49338	0.226966292
3961.56468	0.226457399
3959.63597	0.226696495
3957.70726	0.226358898
3955.77855	0.226597325
3953.84985	0.226261128
3951.92114	0.226666667
3949.99243	0.22616408
3948.06372	0.226568266
3946.13502	0.226804124
3944.20631	0.226470588
3942.2776	0.22597212
3940.3489	0.226207906
3938.42019	0.225712199
3936.49148	0.225382932
3934.56277	0.225782957
3932.63407	0.226181818
3930.70536	0.225689405
3928.77665	0.225923244
3926.84794	0.225433526
3924.91924	0.225666907
3922.99053	0.225341973
3921.06182	0.225017973
3919.13312	0.225412778
3917.20441	0.225089606
3915.2757	0.225160829
3913.34699	0.225392297
3911.41829	0.225622776
3909.48958	0.225142045
3907.56087	0.224982257
3905.63217	0.224822695
3903.70346	0.224663359
3901.77475	0.224186704
3899.84604	0.224417784
3897.91734	0.224331927
3895.98863	0.224561404
3894.05992	0.224246671
3892.13121	0.22463261
3890.20251	0.224162011
3888.2738	0.223849372
3886.34509	0.223537604
3884.41639	0.223766505
3882.48768	0.223994452
3880.55897	0.223529412
3878.63026	0.223602484
3876.70156	0.223140496
3874.77285	0.22352132
3872.84414	0.223367698
3870.91543	0.223214286
3868.98673	0.223287671
3867.05802	0.222829802
3865.12931	0.223055935
3863.20061	0.223281144
3861.2719	0.2233537
3859.34319	0.222899729
3857.41448	0.222899729
3855.48578	0.221995927
3853.55707	0.222523745
3851.62836	0.222822417
3849.69966	0.222968435
3847.77095	0.223040857
3845.84224	0.222593583
3843.91353	0.222296395
3841.98483	0.222148099
3840.05612	0.222
3838.12741	0.222370173
3836.1987	0.222443559
3834.27	0.221854305
3832.34129	0.221928666
3830.41258	0.222148978
3828.48388	0.22156476
3826.55517	0.221930401
3824.62646	0.221639344
3822.69775	0.221494102
3820.76905	0.221204188
3818.84034	0.221423906
3816.91163	0.221642764
3814.98292	0.221716515
3813.05422	0.221502591
3811.12551	0.221719457
3809.1968	0.221576227
3807.2681	0.221290323
3805.33939	0.221005155
3803.41068	0.220720721
3801.48197	0.221079692
3799.55327	0.221153846
3797.62456	0.221086262
3795.69585	0.221159975
3793.76715	0.220597584
3791.83844	0.220812183
3789.90973	0.221025966
3787.98102	0.220606827
3786.05232	0.220959596
3784.12361	0.220541903
3782.1949	0.220264317
3780.26619	0.220477387
3778.33749	0.220689655
3776.40878	0.220137586
3774.48007	0.220349563
3772.55137	0.220074813
3770.62266	0.219800747
3768.69395	0.220149254
3766.76524	0.220223325
3764.83654	0.219814241
3762.90783	0.220024722
3760.97912	0.219753086
3759.05041	0.219346888
3757.12171	0.219557196
3755.193	0.21942225
3753.26429	0.219557196
3751.33559	0.218807621
3749.40688	0.218404908
3747.47817	0.21875
3745.54946	0.218003674
3743.62076	0.218425869
3741.69205	0.218579235
3739.76334	0.21865536
3737.83464	0.21865536
3735.90593	0.218523002
3733.97722	0.218599034
3732.04851	0.219013237
3730.11981	0.218956209
3728.1911	0.218562874
3726.26239	0.218301435
3724.33368	0.218507463
3722.40498	0.217986897
3720.47627	0.218192628
3718.54756	0.21826809
3716.61886	0.218472469
3714.69015	0.218343195
3712.76144	0.217622708
3710.83273	0.217827627
3708.90403	0.217775162
3706.97532	0.217723005
3705.04661	0.217926186
3703.1179	0.217671153
3701.1892	0.217873832
3699.26049	0.217948718
3697.33178	0.217568354
3695.40308	0.217189315
3693.47437	0.217063262
3691.54566	0.217063262
3689.61695	0.217517401
3687.68825	0.217466744
3685.75954	0.217291066
3683.83083	0.217366302
3681.90213	0.2171166
3679.97342	0.216991963
3678.04471	0.216991963
3676.116	0.216991963
3674.1873	0.217067583
3672.25859	0.216695254
3670.32988	0.216894977
3668.40117	0.216723549
3666.47247	0.21667612
3664.54376	0.216751556
3662.61505	0.216949153
3660.68635	0.216704289
3658.75764	0.216582064
3656.82893	0.216459977
3654.90022	0.216094541
3652.97152	0.215973003
3651.04281	0.216094541
3649.1141	0.215973003
3647.18539	0.215928211
3645.25669	0.216201117
3643.32798	0.215719064
3641.39927	0.215915415
3639.47057	0.216111111
3637.54186	0.215871254
3635.61315	0.215631929
3633.68444	0.215512465
3631.75574	0.215631929
3629.82703	0.215077605
3627.89832	0.215154867
3625.96961	0.214994487
3624.04091	0.215071507
3622.1122	0.215071507
3620.18349	0.215071507
3618.25479	0.214717188
3616.32608	0.21503017
3614.39737	0.214676889
3612.46866	0.214559387
3610.53996	0.214324768
3608.61125	0.214519651
3606.68254	0.21459695
3604.75384	0.214673913
3602.82513	0.214324471
3600.89642	0.214208243
3598.96771	0.214517876
3597.03901	0.214169822
3595.1103	0.213938412
3593.18159	0.214131607
3591.25288	0.213900862
3589.32418	0.213900862
3587.39547	0.213670614
3585.46676	0.213748657
3583.53806	0.213826367
3581.60935	0.214018192
3579.68064	0.213675214
3577.75193	0.21398079
3575.82323	0.213752665
3573.89452	0.213943587
3571.96581	0.213829787
3570.0371	0.213297872
3568.1084	0.213184476
3566.17969	0.212845011
3564.25098	0.212923729
3562.32228	0.213114754
3560.39357	0.213305174
3558.46486	0.213080169
3556.53615	0.212855638
3554.60745	0.212631579
3552.67874	0.212933754
3550.75003	0.212710084
3548.82133	0.213011542
3546.89262	0.21278826
3544.96391	0.212454212
3543.0352	0.212754835
3541.1065	0.212943633
3539.17779	0.212721585
3537.24908	0.2125
3535.32037	0.212278876
3533.39167	0.212467532
3531.46296	0.212247016
3529.53425	0.212026957
3527.60555	0.212435233
3525.67684	0.212215321
3523.74813	0.211995863
3521.81942	0.212293388
3519.89072	0.21196493
3517.96201	0.21215242
3516.0333	0.211934156
3514.10459	0.211716341
3512.17589	0.21201232
3510.24718	0.211686315
3508.31847	0.211469534
3506.38977	0.211656442
3504.46106	0.211440245
3502.53235	0.211734694
3500.60364	0.211411105
3498.67494	0.211704835
3496.74623	0.211382114
3494.81752	0.211167513
3492.88882	0.211460446
3490.96011	0.211246201
3489.0314	0.211538462
3487.10269	0.211217787
3485.17399	0.211004543
3483.24528	0.210685484
3481.31657	0.210976838
3479.38786	0.211161388
3477.45916	0.210843373
3475.53045	0.210631896
3473.60174	0.210816224
3471.67304	0.2105
3469.74433	0.210789211
3467.81562	0.210473815
3465.88691	0.210657371
3463.95821	0.210343113
3462.0295	0.210526316
3460.10079	0.21031746
3458.17208	0.210500248
3456.24338	0.210187933
3454.31467	0.210474308
3452.38596	0.210162802
3450.45726	0.209955643
3448.52855	0.210137795
3446.59984	0.20982801
3444.67113	0.210009814
3442.74243	0.209701127
3440.81372	0.209882583
3438.88501	0.209574988
3436.95631	0.209756098
3435.0276	0.209449586
3433.09889	0.20963035
3431.17018	0.209708738
3429.24148	0.209302326
3427.31277	0.209482342
3425.38406	0.209560599
3423.45535	0.209257473
3421.52665	0.209436688
3419.59794	0.209615385
3417.66923	0.209213052
3415.74053	0.209391471
3413.81182	0.208990913
3411.88311	0.209169054
3409.9544	0.208969466
3408.0257	0.209147213
3406.09699	0.209324453
3404.16828	0.209026128
3402.23957	0.208728653
3400.31087	0.208806818
3398.38216	0.208412098
3396.45345	0.208490566
3394.52475	0.208568738
3392.59604	0.208646617
3390.66733	0.208724203
3388.73862	0.208333333
3386.80992	0.208508649
3384.88121	0.208586094
3382.9525	0.208760485
3381.0238	0.208372093
3379.09509	0.208546215
3377.16638	0.208159481
3375.23767	0.20787037
3373.30897	0.207948244
3371.38026	0.208121827
3369.45155	0.207738369
3367.52284	0.207911684
3365.59414	0.20808452
3363.66543	0.208161394
3361.73672	0.20778032
3359.80802	0.207952468
3357.87931	0.208029197
3355.9506	0.207744875
3354.02189	0.207821737
3352.09319	0.207992734
3350.16448	0.207615594
3348.23577	0.207786329
3346.30706	0.207504521
3344.37836	0.207581227
3342.44965	0.207751239
3340.52094	0.20782726
3338.59224	0.207453974
3336.66353	0.207174888
3334.73482	0.207251567
3332.80611	0.207420653
3330.87741	0.207496653
3328.9487	0.207126949
3327.01999	0.207295374
3325.09129	0.206927176
3323.16258	0.207095344
3321.23387	0.207171315
3319.30516	0.206805126
3317.37646	0.206972639
3315.44775	0.20660793
3313.51904	0.206684257
3311.59033	0.206760316
3309.66163	0.206836109
3307.73292	0.206564551
3305.80421	0.206640454
3303.87551	0.206716092
3301.9468	0.206356117
3300.01809	0.206521739
3298.08938	0.206597222
3296.16068	0.206672444
3294.23197	0.206314879
3292.30326	0.206390328
3290.37455	0.206465517
3288.44585	0.206540448
3286.51714	0.206274173
3284.58843	0.20626072
3282.65973	0.205907534
3280.73102	0.205982906
3278.80231	0.20605802
3276.8736	0.205706985
3274.9449	0.205869843
3273.01619	0.205944798
3271.08748	0.205932203
3269.15878	0.206006768
3267.23007	0.205658784
3265.30136	0.205733558
3263.37265	0.205387205
3261.44395	0.205462185
3259.51524	0.205623164
3257.58653	0.205278592
3255.65782	0.205353409
3253.72912	0.205427975
3251.80041	0.205502293
3249.8717	0.205160216
3247.943	0.205234732
3246.01429	0.205309
3244.08558	0.204968944
3242.15687	0.205043406
3240.22817	0.205117623
3238.29946	0.205191595
3236.37075	0.205349794
3234.44204	0.205012325
3232.51334	0.20500205
3230.58463	0.205075727
3228.65592	0.204740499
3226.72722	0.204814361
3224.79851	0.204887984
3222.8698	0.204554697
3220.94109	0.204628502
3219.01239	0.204702067
3217.08368	0.2043707
3215.15497	0.204444444
3213.22627	0.204517951
3211.29756	0.20459122
3209.36885	0.204180064
3207.44014	0.204253612
3205.51144	0.204326923
3203.58273	0.2044
3201.65402	0.204472843
3199.72531	0.20414673
3197.79661	0.204219745
3195.8679	0.204292528
3193.93919	0.204284014
3192.01049	0.204356436
3190.08178	0.204033215
3188.15307	0.204025257
3186.22436	0.204097715
3184.29566	0.203776554
3182.36695	0.203849175
3180.43824	0.203921569
3178.50953	0.203993735
3176.58083	0.203595154
3174.65212	0.203667577
3172.72341	0.203660436
3170.79471	0.203732504
3168.866	0.203804348
3166.93729	0.203488372
3165.00858	0.203560372
3163.07988	0.203553496
3161.15117	0.203625145
3159.22246	0.203311513
3157.29376	0.203383314
3155.36505	0.203454894
3153.43634	0.203448276
3151.50763	0.203136955
3149.57893	0.203208556
3147.65022	0.203279939
3145.72151	0.203273696
3143.7928	0.203344736
3141.8641	0.203338392
3139.93539	0.202953427
3138.00668	0.203024575
3136.07798	0.203095508
3134.14927	0.202712886
3132.22056	0.202784048
3130.29185	0.202854996
3128.36315	0.202925731
3126.43444	0.202996255
3124.50573	0.202616822
3122.57702	0.20268757
3120.64832	0.202682563
3118.71961	0.202752976
3116.7909	0.202451709
3114.8622	0.202447164
3112.93349	0.202517586
3111.00478	0.202512934
3109.07607	0.202583026
3107.14737	0.202578269
3105.21866	0.202205882
3103.28995	0.202276065
3101.36125	0.201979472
3099.43254	0.20204978
3097.50383	0.202046036
3095.57512	0.202407002
3093.64642	0.202112163
3091.71771	0.202108324
3089.789	0.202177858
3087.86029	0.201811594
3085.93159	0.201881331
3084.00288	0.201877934
3082.07417	0.201947349
3080.14547	0.201943844
3078.21676	0.201940352
3076.28805	0.202009329
3074.35934	0.202078108
3072.43064	0.201716738
3070.50193	0.201428571
3068.57322	0.20149786
3066.64451	0.201495194
3064.71581	0.201564166
3062.7871	0.201561391
3060.85839	0.201558626
3058.92969	0.201627167
3057.00098	0.201342282
3055.07227	0.201339915
3053.14356	0.201408451
3051.21486	0.201054482
3049.28615	0.201123201
3047.35744	0.201191728
3045.42874	0.201189643
3043.50003	0.200908456
3041.57132	0.200906871
3039.64261	0.20097527
3037.71391	0.201043478
3035.7852	0.201111497
3033.85649	0.200832466
3031.92778	0.200831025
3029.99908	0.200899032
3028.07037	0.200966851
3026.14166	0.200620476
3024.21296	0.200688468
3022.28425	0.200756274
3020.35554	0.200480604
3018.42683	0.200548509
3016.49813	0.200616227
3014.56942	0.200683761
3012.64071	0.200819672
3010.712	0.200545703
3008.7833	0.200613079
3006.85459	0.200408302
3004.92588	0.200475705
3002.99718	0.200203597
3001.06847	0.200338983
2999.13976	0.200474094
2997.21105	0.200270636
2995.28235	0.200473293
2993.35364	0.200337838
2991.42493	0.200540176
2989.49623	0.200404858
2987.56752	0.200337268
2985.63881	0.200269724
2983.7101	0.200269724
2981.7814	0.200337268
2979.85269	0.200404858
2977.92398	0.200202566
2975.99527	0.200135227
2974.06657	0.200135455
2972.13786	0.199864269
2970.20915	0.20006805
2968.28045	0.200204638
2966.35174	0.200204988
2964.42303	0.2
2962.49432	0.200204988
2960.56562	0.200068166
2958.63691	0.199796126
2956.7082	0.199729181
2954.77949	0.199662732
2952.85079	0.199932796
2950.92208	0.199933021
2948.99337	0.199732799
2947.06467	0.199733244
2945.13596	0.199467199
2943.20725	0.199334443
2941.27854	0.199667221
2939.34984	0.199400799
2937.42113	0.199467199
2935.49242	0.199467199
2933.56372	0.199467199
2931.63501	0.199334443
2929.7063	0.199468085
2927.77759	0.199535193
2925.84889	0.199535963
2923.92018	0.199404762
2921.99147	0.199208443
2920.06276	0.199211045
2918.13406	0.19921363
2916.20535	0.199151159
2914.27664	0.198828506
2912.34794	0.19889682
2910.41923	0.199029126
2908.49052	0.19883796
2906.56181	0.199033816
2904.63311	0.198907455
2902.7044	0.199102276
2900.77569	0.198976328
2898.84698	0.198850942
2896.91828	0.198726115
2894.98957	0.198601843
2893.06086	0.198795181
2891.13216	0.198734177
2889.20345	0.198736177
2887.27474	0.19873817
2885.34603	0.198802773
2883.41733	0.198552549
2881.48862	0.198742138
2879.55991	0.198617222
2877.63121	0.198492462
2875.7025	0.198305617
2873.77379	0.198370417
2871.84508	0.198435055
2869.91638	0.1984375
2867.98767	0.198439938
2866.05896	0.198130841
2864.13025	0.198195395
2862.20155	0.198259789
2860.27284	0.198324022
2858.34413	0.198139535
2856.41543	0.198142415
2854.48672	0.198145286
2852.55801	0.19802591
2850.6293	0.198153846
2848.7006	0.198159509
2846.77189	0.198165138
2844.84318	0.197865854
2842.91447	0.197932502
2840.98577	0.197755535
2839.05706	0.197881997
2837.12835	0.1977657
2835.19965	0.197709464
2833.27094	0.197954272
2831.34223	0.197897898
2829.41352	0.197901049
2827.48482	0.197545645
2825.55611	0.197549313
2823.6274	0.197552969
2821.6987	0.197556615
2819.76999	0.19756025
2817.84128	0.197622585
2815.91257	0.197567487
2813.98387	0.19757109
2812.05516	0.197633136
2810.12645	0.197636632
2808.19774	0.197403364
2806.26904	0.19746537
2804.34033	0.197469099
2802.41162	0.19717896
2800.48292	0.197183099
2798.55421	0.197245018
2796.6255	0.197014052
2794.69679	0.197018416
2792.76809	0.197022767
2790.83938	0.197027106
2788.91067	0.197088792
2786.98196	0.197093023
2785.05326	0.197097242
2783.12455	0.197101449
2781.19584	0.19716271
2779.26714	0.19687771
2777.33843	0.196882217
2775.40972	0.196943483
2773.48101	0.197004608
2771.55231	0.197008916
2769.6236	0.197069808
2767.69489	0.196787149
2765.76619	0.196848138
2763.83748	0.196852647
2761.90877	0.196913404
2759.98006	0.196688553
2758.05136	0.196693273
2756.12265	0.196753986
2754.19394	0.196530148
2752.26523	0.196535075
2750.33653	0.196595745
2748.40782	0.19637291
2746.47911	0.196378042
2744.55041	0.196383159
2742.6217	0.196443692
2740.69299	0.196504088
2738.76428	0.196564348
2736.83558	0.196569179
2734.90687	0.196629213
2732.97816	0.196689113
2731.04945	0.196413561
2729.12075	0.196473552
2727.19204	0.19647848
2725.26333	0.196204298
2723.33463	0.196264288
2721.40592	0.195991091
2719.47721	0.196051168
2717.5485	0.196111111
2715.6198	0.196116505
2713.69109	0.196121884
2711.76238	0.196181516
2709.83368	0.196186792
2707.90497	0.196246205
2705.97626	0.196029777
2704.04755	0.196089232
2702.11885	0.196094609
2700.19014	0.195825323
2698.26143	0.195884774
2696.33272	0.195890411
2694.40402	0.195675972
2692.47531	0.195735375
2690.5466	0.195794648
2688.6179	0.195800382
2686.68919	0.196131844
2684.76048	0.195918367
2682.83177	0.195923913
2680.90307	0.195711183
2678.97436	0.195716996
2677.04565	0.195775792
2675.11694	0.19583446
2673.18824	0.195840086
2671.25953	0.19562871
2669.33082	0.195687332
2667.40212	0.195693136
2665.47341	0.195482657
2663.5447	0.195488722
2661.61599	0.19554721
2659.68729	0.195553174
2657.75858	0.195343859
2655.82987	0.19535008
2653.90117	0.195408436
2651.97246	0.195414556
2650.04375	0.19542066
2648.11504	0.195478723
2646.18634	0.195536663
2644.25763	0.19559448
2642.32892	0.195335277
2640.40021	0.195393169
2638.47151	0.19539926
2636.5428	0.195456947
2634.61409	0.195462939
2632.68539	0.195256917
2630.75668	0.195314556
2628.82797	0.195057834
2626.89926	0.195115546
2624.97056	0.195121951
2623.04185	0.19517946
2621.11314	0.195236849
2619.18443	0.19503268
2617.25573	0.195039164
2615.32702	0.195045632
2613.39831	0.195052083
2611.46961	0.195109261
2609.5409	0.195115614
2607.61219	0.195172593
2605.68348	0.195178849
2603.75478	0.195235629
2601.82607	0.195033626
2599.89736	0.194832041
2597.96865	0.19483871
2596.03995	0.194895592
2594.11124	0.195209889
2592.18253	0.194958848
2590.25383	0.194965322
2588.32512	0.194715239
2586.39641	0.194771912
2584.4677	0.194778603
2582.539	0.194835081
2580.61029	0.194891443
2578.68158	0.194642857
2576.75288	0.194649682
2574.82417	0.194706032
2572.89546	0.194712761
2570.96675	0.194768918
2569.03805	0.194775552
2567.10934	0.194578161
2565.18063	0.19458502
2563.25192	0.194591863
2561.32322	0.194598688
2559.39451	0.194402421
2557.4658	0.194458438
2555.5371	0.194514343
2553.60839	0.194772556
2551.67968	0.194576952
2549.75097	0.194583751
2547.82227	0.194388778
2545.89356	0.194395797
2543.96485	0.194451387
2542.03614	0.194458313
2540.10744	0.194215906
2538.17873	0.194271482
2536.25002	0.194278607
2534.32132	0.194085487
2532.39261	0.194092827
2530.4639	0.194100149
2528.53519	0.194155523
2526.60649	0.194210787
2524.67778	0.194217939
2522.74907	0.194273019
2520.82037	0.194280079
2518.89166	0.194040877
2516.96295	0.194095941
2515.03424	0.194103194
2513.10554	0.194110429
2511.17683	0.194165237
2509.24812	0.193975018
2507.31941	0.193982387
2505.39071	0.193989739
2503.462	0.193997072
2501.53329	0.194051682
2499.60459	0.194058924
2497.67588	0.194066148
2495.74717	0.194120505
2493.81846	0.194174757
2491.88976	0.194181818
2489.96105	0.193993703
2488.03234	0.194000968
2486.10363	0.19376661
2484.17493	0.193820903
2482.24622	0.193828351
2480.31751	0.193835781
2478.38881	0.193889824
2476.4601	0.193897165
2474.53139	0.193710994
2472.60268	0.193718533
2470.67398	0.193726054
2468.74527	0.193779904
2466.81656	0.193787336
2464.88786	0.193794749
2462.95915	0.193848355
2461.03044	0.19385568
2459.10173	0.193625119
2457.17303	0.193632692
2455.24432	0.193640247
2453.31561	0.193693694
2451.3869	0.193510185
2449.4582	0.193517861
2447.52949	0.19380761
2445.60078	0.193578848
2443.67208	0.193540783
2441.74337	0.193358455
2439.81466	0.193366267
2437.88595	0.193654524
2435.95725	0.193661972
2434.02854	0.193669402
2432.09983	0.193722183
2430.17112	0.193495555
2428.24242	0.193503155
2426.31371	0.193510738
2424.385	0.193518303
2422.4563	0.19352585
2420.52759	0.193578409
2418.59888	0.19358587
2416.67017	0.193593315
2414.74147	0.193600742
2412.81276	0.193376563
2410.88405	0.193384224
2408.95535	0.193436561
2407.02664	0.193444137
2405.09793	0.193451695
2403.16922	0.193459235
2401.24052	0.193466759
2399.31181	0.193474265
2397.3831	0.193526171
2395.45439	0.193304288
2393.52569	0.193311956
2391.59698	0.193363844
2389.66827	0.193371429
2387.73957	0.193334855
2385.81086	0.193342453
2383.88215	0.193350034
2381.95344	0.193174061
2380.02474	0.193181818
2378.09603	0.193233424
2376.16732	0.193241098
2374.23861	0.193248754
2372.30991	0.193073789
2370.3812	0.193081619
2368.45249	0.193089431
2366.52379	0.192915162
2364.59508	0.193148524
2362.66637	0.193156236
2360.73766	0.193163931
2358.80896	0.193171608
2356.88025	0.193135935
2354.95154	0.193143625
2353.02284	0.193108078
2351.09413	0.19311578
2349.16542	0.193123465
2347.23671	0.193174214
2345.30801	0.193181818
2343.3793	0.193232413
2341.45059	0.193017567
2339.52188	0.193068207
2337.59318	0.193075899
2335.66447	0.193083573
2333.73576	0.193091231
2331.80706	0.193098872
2329.87835	0.193063839
2327.94964	0.193071492
2326.02093	0.193079127
2324.09223	0.192866579
2322.16352	0.192832014
2320.23481	0.192839886
2318.3061	0.19284774
2316.3774	0.192855577
2314.44869	0.192863398
2312.51998	0.192871201
2310.59128	0.192836864
2308.66257	0.193062827
2306.73386	0.193112467
2304.80515	0.192902243
2302.87645	0.192909961
2300.94774	0.192917662
2299.01903	0.192925347
2297.09033	0.192933015
2295.16162	0.192940667
2293.23291	0.192773691
2291.3042	0.192997623
2289.3755	0.192830922
2287.44679	0.192838654
2285.51808	0.192846369
2283.58937	0.192854068
2281.66067	0.19286175
2279.73196	0.192869416
2277.80325	0.192918455
2275.87455	0.192926045
2273.94584	0.192719486
2272.01713	0.192941176
2270.08842	0.192989955
2268.15972	0.192783945
2266.23101	0.19279164
2264.3023	0.192799318
2262.37359	0.19284802
2260.44489	0.192855624
2258.51618	0.192650807
2256.58747	0.192870783
2254.65877	0.192837466
2252.73006	0.192845047
2250.80135	0.192852612
2248.87264	0.19281943
2246.94394	0.192827004
2245.01523	0.192583228
2243.08652	0.192801515
2241.15782	0.192768552
2239.22911	0.192525719
2237.3004	0.192743289
2235.37169	0.192710515
2233.44299	0.192718142
2231.51428	0.192894462
2229.58557	0.192652891
2227.65686	0.192620388
2225.72816	0.192628072
2223.79945	0.192595674
2221.87074	0.192811137
2219.94204	0.192571073
2218.01333	0.192578773
2216.08462	0.192546584
2214.15591	0.192554292
2212.22721	0.192728775
2210.2985	0.192736277
2208.36979	0.192743764
2206.44108	0.19271155
2204.51238	0.192719046
2202.58367	0.192726526
2200.65496	0.19273399
2198.72626	0.192741439
2196.79755	0.1927094
2194.86884	0.192716858
2192.94013	0.1927243
2191.01143	0.192731727
2189.08272	0.192739139
2187.15401	0.192746536
2185.22531	0.192753918
2183.2966	0.192761285
2181.36789	0.192565509
2179.43918	0.192573052
2177.51048	0.192783296
2175.58177	0.192588092
2173.65306	0.19259559
2171.72435	0.192603072
2169.79565	0.192610539
2167.86694	0.192819685
2165.93823	0.192625428
2164.00953	0.19263285
2162.08082	0.192640257
2160.15211	0.19264765
2158.2234	0.192655027
2156.2947	0.19266239
2154.36599	0.192708333
2152.43728	0.192715629
2150.50857	0.192561488
2148.57987	0.192684389
2146.65116	0.192684389
2144.72245	0.192684389
2142.79375	0.19261477
2140.86504	0.192430279
2138.93633	0.192682442
2137.00762	0.192613185
2135.07892	0.192620512
2133.15021	0.192627824
2131.2215	0.192596991
2129.2928	0.192566232
2127.36409	0.192573573
2125.43538	0.192542908
2123.50667	0.192550256
2121.57797	0.192360701
2119.64926	0.19256491
2117.72055	0.192534381
2115.79184	0.192541708
2113.86314	0.192511272
2111.93443	0.192518606
2110.00572	0.192488263
2108.07702	0.192300176
2106.14831	0.192270154
2104.2196	0.192472699
2102.29089	0.192480031
2100.36219	0.192449893
2098.43348	0.192419825
2096.50477	0.192389827
2094.57606	0.192397207
2092.64736	0.192367299
2090.71865	0.19253096
2088.78994	0.192500966
2086.86124	0.192471042
2084.93253	0.192441188
2083.00382	0.192411402
2081.07511	0.192381685
2079.14641	0.192389006
2077.2177	0.192359378
2075.28899	0.192329818
2073.36029	0.192300326
2071.43158	0.192270901
2069.50287	0.192315045
2067.57416	0.192359121
2065.64546	0.192366412
2063.71675	0.192490947
2061.78804	0.192388202
2059.85933	0.192512353
2057.93063	0.19229309
2056.00192	0.192453546
2054.07321	0.192424242
2052.14451	0.19243141
2050.2158	0.192402192
2048.28709	0.192373041
2046.35838	0.192343956
2044.42968	0.192503296
2042.50097	0.192322168
2040.57226	0.192481203
2038.64355	0.192264363
2036.71485	0.192271619
2034.78614	0.192430204
2032.85743	0.19247332
2030.92873	0.192401273
2029.00002	0.19251637
2027.07131	0.192415468
2025.1426	0.192501399
2023.2139	0.192436662
2021.28519	0.19240789
2019.35648	0.192414947
2017.42778	0.192236256
2015.49907	0.192429022
2013.57036	0.192215014
2011.64165	0.192371783
2009.71295	0.192563818
2007.78424	0.192570689
2005.85553	0.192577548
2003.92682	0.192399926
2001.99812	0.19240693
2000.06941	0.19241392
1998.1407	0.192385507
1996.212	0.192576259
1994.28329	0.192399486
1992.35458	0.192258301
1990.42587	0.19244868
1988.49717	0.192455594
1986.56846	0.192427291
1984.63975	0.192434211
1982.71104	0.192258536
1980.78234	0.192265596
1978.85363	0.192307692
1976.92492	0.192314697
1974.99622	0.192321689
1973.06751	0.192363636
1971.1388	0.192405523
1969.21009	0.192412416
1967.28139	0.192454199
1965.35268	0.192461037
1963.42397	0.192356457
1961.49527	0.192600653
1959.56656	0.192447349
1957.63785	0.192530819
1955.70914	0.192627394
1953.78044	0.192536506
1951.85173	0.192508554
1949.92302	0.192549937
1947.99431	0.19252202
1946.06561	0.192494164
1944.1369	0.192500897
1942.20819	0.192507618
1940.27949	0.192445399
1938.35078	0.192562131
1936.42207	0.192568775
1934.49336	0.192575406
1932.56466	0.192582026
1930.63595	0.192410476
1928.70724	0.19241723
1926.77853	0.1924582
1924.84983	0.192464901
1922.92112	0.192505772
1920.99241	0.192369122
1919.06371	0.192410002
1917.135	0.192559787
1915.20629	0.192641076
1913.27758	0.192613536
1911.34888	0.19265407
1909.42017	0.192484121
1907.49146	0.192667019
1905.56276	0.192639549
1903.63405	0.192646024
1901.70534	0.192652487
1899.77663	0.192692781
1897.84793	0.192733017
1895.91922	0.19259779
1893.99051	0.192604276
1892.0618	0.192644483
1890.1331	0.192509625
1888.20439	0.19269103
1886.27568	0.192663755
1884.34698	0.192670157
1882.41827	0.192676548
1880.48956	0.192682927
1878.56085	0.192863359
1876.63215	0.192695652
1874.70344	0.192701998
1872.77473	0.192775269
1870.84602	0.192601598
1868.91732	0.192708333
1866.98861	0.192614424
1865.0599	0.19266055
1863.1312	0.192806502
1861.20249	0.192812716
1859.27378	0.192818919
1857.34507	0.192825112
1855.41637	0.192658969
1853.48766	0.192870673
1851.55895	0.192704749
1849.63025	0.192916094
1847.70154	0.192711019
1845.77283	0.192572215
1843.84412	0.192611684
1841.91542	0.192624357
1839.98671	0.19284124
1838.058	0.192814371
1836.12929	0.192820513
1834.20059	0.192826644
1832.27188	0.192622951
1830.34317	0.192557187
1828.41447	0.192596383
1826.48576	0.19256987
1824.55705	0.192713653
1822.62834	0.19282435
1820.69964	0.192967556
1818.77093	0.193006281
1816.84222	0.192875318
1814.91351	0.192777213
1812.98481	0.192881356
1811.0561	0.192783331
1809.12739	0.192822076
1807.19869	0.192860768
1805.26998	0.192932026
1803.34127	0.192932026
1801.41256	0.192932026
1799.48386	0.193035835
1797.55515	0.192905405
1795.62644	0.192905405
1793.69774	0.192834207
1791.76903	0.192834207
1789.84032	0.192976532
1787.91161	0.193015016
1785.98291	0.193015016
1784.0542	0.193015016
1782.12549	0.192982456
1780.19678	0.19311857
1778.26808	0.193222054
1776.33937	0.193086003
1774.41066	0.193080169
1772.48196	0.192872826
1770.55325	0.192976532
1768.62454	0.192982456
1766.69583	0.192955848
1764.76713	0.193195216
1762.83842	0.193091828
1760.90971	0.193325468
1758.981	0.193358058
1757.0523	0.193287232
1755.12359	0.193450371
1753.19488	0.193270206
1751.26618	0.193154863
1749.33747	0.193181818
1747.40876	0.193280163
1745.48005	0.193378608
1743.55135	0.19326874
1741.62264	0.193361702
1739.69393	0.193526405
1737.76523	0.193520887
1735.83652	0.193443743
1733.90781	0.193405091
1731.9791	0.19341634
1730.0504	0.193498979
1728.12169	0.193510024
1726.19298	0.193553859
1724.26427	0.193630357
1722.33557	0.193466486
1720.40686	0.193466486
1718.47815	0.193297224
1716.54945	0.193406593
1714.62074	0.193390659
1712.69203	0.1933423
1710.76332	0.193456376
1708.83462	0.193397017
1706.90591	0.193434936
1704.9772	0.193240756
1703.04849	0.193208431
1701.11979	0.193240756
1699.19108	0.193181818
1697.26237	0.193430048
1695.33367	0.193510815
1693.40496	0.193494856
1691.47625	0.193505633
1689.54754	0.193409505
1687.61884	0.19347358
1685.69013	0.193500249
1683.76142	0.193334439
1681.83272	0.193313472
1679.90401	0.19335647
1677.9753	0.19345779
1676.04659	0.193489755
1674.11789	0.193425834
1672.18918	0.19349513
1670.26047	0.193527081
1668.33176	0.193367431
1666.40306	0.193606855
1664.47435	0.193574959
1662.54564	0.193707791
1660.61694	0.193580247
1658.68823	0.193516538
1656.75952	0.193442083
1654.83081	0.193324521
1652.90211	0.193350976
1650.9734	0.193463189
1649.04469	0.193404782
1647.11598	0.193404782
1645.18728	0.193543074
1643.25857	0.193718138
1641.32986	0.193755136
1639.40116	0.193553692
1637.47245	0.193479335
1635.54374	0.193543074
1633.61503	0.193585526
1631.68633	0.193792084
1629.75762	0.193728452
1627.82891	0.193596059
1625.90021	0.193659658
1623.9715	0.193691474
1622.04279	0.193792084
1620.11408	0.193728452
1618.18538	0.193792084
1616.25667	0.193892628
1614.32796	0.193802263
1612.39925	0.193971166
1610.47055	0.193939394
1608.54184	0.193939394
1606.61313	0.19387588
1604.68443	0.193812408
1602.75572	0.193912617
1600.82701	0.193981027
1598.8983	0.193917593
1596.9696	0.193985945
1595.04089	0.194054231
1593.11218	0.194222295
1591.18347	0.194063927
1589.25477	0.194068763
1587.32606	0.194204786
1585.39735	0.194046845
1583.46865	0.194182645
1581.53994	0.194218902
1579.61123	0.194025004
1577.68252	0.19408803
1575.75382	0.193962019
1573.82511	0.194003241
1571.8964	0.19417004
1569.96769	0.194075753
1568.03899	0.194210867
1566.11028	0.194121447
1564.18157	0.194027441
1562.25287	0.194085326
1560.32416	0.193976684
1558.39545	0.193846154
1556.46674	0.19389239
1554.53804	0.194037067
1552.60933	0.194238816
1550.68062	0.194113863
1548.75192	0.194212219
1546.82321	0.194145086
1544.8945	0.194041868
1542.96579	0.194032258
1541.03709	0.193964822
1539.10838	0.194135653
1537.17967	0.194087404
1535.25096	0.193967592
1533.32226	0.194163861
1531.39355	0.194266496
1529.46484	0.194302177
1527.53614	0.194204291
1525.60743	0.194168536
1523.67872	0.194065758
1521.75001	0.193900482
1519.82131	0.193967592
1517.8926	0.194230769
1515.96389	0.194235388
1514.03518	0.19433328
1512.10648	0.194044188
1510.17777	0.194070513
1508.24906	0.194128028
1506.32036	0.194163861
1504.39165	0.194497761
1502.46294	0.194475491
1500.53423	0.194346854
1498.60553	0.194533248
1496.67682	0.194373402
1494.74811	0.19456869
1492.81941	0.19456869
1490.8907	0.194404476
1488.96199	0.194466656
1487.03328	0.194502158
1485.10458	0.194666241
1483.17587	0.194604087
1481.24716	0.194506547
1479.31845	0.194661979
1477.38975	0.194622279
1475.46104	0.194515715
1473.53233	0.194506907
1471.60363	0.194310511
1469.67492	0.194502492
1467.74621	0.194466785
1465.8175	0.19452496
1463.8888	0.194587629
1461.96009	0.194489204
1460.03138	0.19448031
1458.10267	0.194372574
1456.17397	0.194502829
1454.24526	0.194740239
1452.31655	0.194780087
1450.38785	0.194878402
1448.45914	0.19468599
1446.53043	0.194721596
1444.60172	0.194694534
1442.67302	0.194600675
1440.74431	0.194631951
1438.8156	0.194560669
1436.8869	0.194556289
1434.95819	0.194752937
1433.02948	0.194757157
1431.10077	0.194886638
1429.17207	0.19491798
1427.24336	0.19491798
1425.31465	0.194851167
1423.38594	0.194717346
1421.45724	0.194708824
1419.52853	0.194700275
1417.59982	0.194601584
1415.67112	0.194991922
1413.74241	0.195023429
1411.8137	0.195019405
1409.88499	0.195015375
1407.95629	0.195011338
1406.02758	0.195038911
1404.09887	0.195003245
1402.17016	0.194967532
1400.24146	0.195094217
1398.31275	0.194864294
1396.38404	0.195026816
1394.45534	0.19506253
1392.52663	0.195003245
1390.59792	0.19523269
1388.66921	0.19513382
1386.74051	0.195197144
1384.8118	0.195264353
1382.88309	0.195169395
1380.95439	0.195398574
1379.02568	0.19536692
1377.09697	0.19536692
1375.16826	0.195430238
1373.23956	0.195236552
1371.31085	0.195497247
1369.38214	0.195433938
1367.45343	0.195240408
1365.52473	0.195402299
1363.59602	0.195110104
1361.66731	0.195339052
1359.73861	0.195311237
1357.8099	0.195315024
1355.88119	0.195543355
1353.95248	0.195448677
1352.02378	0.195676722
1350.09507	0.195711752
1348.16636	0.195585629
1346.23765	0.195620673
1344.30895	0.195526231
1342.38024	0.195494771
1340.45153	0.195494771
1338.52283	0.19540045
1336.59412	0.19556484
1334.66541	0.195697544
1332.7367	0.195861405
1330.808	0.195896121
1328.87929	0.195641724
1326.95058	0.195579049
1325.02188	0.195547726
1323.09317	0.195547726
1321.16446	0.195739228
1319.23575	0.195610381
1317.30705	0.195801955
1315.37834	0.195864722
1313.44963	0.195735813
1311.52092	0.195927529
1309.59222	0.195798589
1307.66351	0.195861405
1305.7348	0.1957638
1303.8061	0.195666132
1301.87739	0.195791841
1299.94868	0.195725534
1298.01997	0.195882921
1296.09127	0.195848085
1294.16256	0.196005798
1292.23385	0.196163765
1290.30514	0.195999355
1288.37644	0.195996125
1286.44773	0.196024564
1284.51902	0.195891297
1282.59032	0.196145125
1280.66161	0.196043457
1278.7329	0.196167587
1276.80419	0.196193265
1274.87549	0.19608802
1272.94678	0.19624183
1271.01807	0.196329072
1269.08937	0.196281672
1267.16066	0.196593915
1265.23195	0.196410768
1263.30324	0.196663887
1261.37454	0.196658312
1259.44583	0.196628276
1257.51712	0.19683597
1255.58841	0.196645076
1253.65971	0.196585447
1251.731	0.196753892
1249.80229	0.196753892
1247.87359	0.196884322
1245.94488	0.196881738
1244.01617	0.196944537
1242.08746	0.197007481
1240.15876	0.196936907
1238.23005	0.197065689
1236.30134	0.197194857
1234.37263	0.197190166
1232.44393	0.197319933
1230.51522	0.197282335
1228.58651	0.197412634
1226.65781	0.197543328
1224.7291	0.197539188
1222.80039	0.197703866
1220.87168	0.197733424
1218.94298	0.197729583
1217.01427	0.197929044
1215.08556	0.197789116
1213.15686	0.198193592
1211.22815	0.198258197
1209.29944	0.198357008
1207.37073	0.198456261
1205.44203	0.198384047
1203.51332	0.198483804
1201.58461	0.198549724
1199.6559	0.198650286
1197.7272	0.198924731
1195.79849	0.199026595
1193.86978	0.19912892
1191.94108	0.199196927
1190.01237	0.19926522
1188.08366	0.1995441
1186.15495	0.199332044
1184.22625	0.199576869
1182.29754	0.199716964
1180.36883	0.19992904
1178.44012	0.199964451
1176.51142	0.200106819
1174.58271	0.200321085
1172.654	0.200572041
1170.7253	0.200680882
1168.79659	0.200826298
1166.86788	0.200756212
1164.93917	0.200902527
1163.01047	0.201049584
1161.08176	0.200979503
1159.15305	0.201309329
1157.22435	0.201495259
1155.29564	0.201682209
1153.36693	0.202090592
1151.43822	0.20213353
1149.50952	0.202398524
1147.58081	0.202480104
1145.6521	0.202637444
1143.72339	0.202982293
1141.79469	0.203104545
1139.86598	0.203488372
1137.93727	0.203686289
1136.00857	0.203696718
1134.07986	0.20397351
1132.15115	0.204101006
1130.22244	0.204497808
1128.29374	0.204745503
1126.36503	0.204842429
1124.43632	0.205133153
1122.50761	0.205466176
1120.57891	0.205842259
1118.6502	0.206066536
1116.72149	0.2061369
1114.79279	0.20644651
1112.86408	0.206800557
1110.93537	0.2072
1109.00666	0.207645875
1107.07796	0.207894737
1105.14925	0.208350305
1103.22054	0.208563819
1101.29184	0.208899876
1099.36313	0.209273442
1097.43442	0.209727707
1095.50571	0.210010428
1093.57701	0.210372229
1091.6483	0.210736003
1089.71959	0.211312027
1087.79088	0.211603376
1085.86218	0.212153292
1083.93347	0.212539851
1082.00476	0.212761417
1080.07606	0.213367609
1078.14735	0.213594321
1076.21864	0.214116123
1074.28993	0.214548604
1072.36123	0.214890384
1070.43252	0.21562228
1068.50381	0.215921483
1066.5751	0.216440752
1064.6464	0.216743371
1062.71769	0.217095144
1060.78898	0.21784141
1058.86028	0.218274112
1056.93157	0.21878453
1055.00286	0.219371959
1053.07415	0.219690265
1051.14545	0.22023019
1049.21674	0.220819491
1047.28803	0.221360514
1045.35933	0.22195122
1043.43062	0.222320834
1041.50191	0.222962469
1039.5732	0.223605246
1037.6445	0.224299065
1035.71579	0.2251169
1033.78708	0.22554045
1031.85837	0.226360393
1029.92967	0.227130745
1028.00096	0.227850926
1026.07225	0.228641535
1024.14355	0.229106307
1022.21484	0.229519145
1020.28613	0.230375806
1018.35742	0.23095714
1016.42872	0.231707317
1014.50001	0.232403718
1012.5713	0.233046167
1010.64259	0.233906526
1008.71389	0.234491861
1006.78518	0.235177866
1004.85647	0.235861464
1002.92777	0.23653088
1000.99906	0.237469906
999.07035	0.238074398
997.14164	0.238897397
995.21294	0.239658569
993.28423	0.240420407
991.35552	0.24150778
989.42682	0.242317823
987.49811	0.243403694
985.5694	0.244326944
983.64069	0.245195494
981.71199	0.246177709
979.78328	0.247108541
977.85457	0.248157248
975.92586	0.249214895
973.99716	0.250225225
972.06845	0.251582278
970.13974	0.252665003
968.21104	0.253697383
966.28233	0.254678229
964.35362	0.255606407
962.42491	0.256998623
960.49621	0.258168431
958.5675	0.259173783
956.63879	0.260537286
954.71008	0.261506276
952.78138	0.262543757
950.85267	0.263774912
948.92396	0.264844486
946.99526	0.266113744
945.06655	0.267048164
943.13784	0.2681229
941.20913	0.269165659
939.28043	0.270178005
937.35172	0.271340713
935.42301	0.272659548
933.49431	0.27375282
931.5656	0.275120223
929.63689	0.276046987
927.70818	0.277434312
925.77948	0.278441558
923.85077	0.279392511
921.92206	0.28043306
919.99335	0.281491345
918.06465	0.282912413
916.13594	0.283893709
914.20723	0.285049288
912.27853	0.286109574
910.34982	0.287353106
908.42111	0.288423436
906.4924	0.289601833
904.5637	0.290518991
902.63499	0.291752275
900.70628	0.292668448
898.77757	0.293729373
896.84887	0.29493786
894.92016	0.296171516
892.99145	0.297213622
891.06275	0.29827856
889.13404	0.299461855
887.20533	0.300352225
885.27662	0.301263362
883.34792	0.30242464
881.41921	0.303281405
879.4905	0.304289544
877.5618	0.305452083
875.63309	0.306429549
873.70438	0.307453416
871.77567	0.308521739
869.84697	0.309498773
867.91826	0.310490993
865.98955	0.311142755
864.06084	0.311581212
862.13214	0.312387143
860.20343	0.313204802
858.27472	0.313919414
856.34602	0.314896755
854.41731	0.315515961
852.4886	0.31651719
850.55989	0.317155756
848.63119	0.317682696
846.70248	0.318095238
844.77377	0.318651858
842.84506	0.318829419
840.91636	0.319272446
838.98765	0.319719953
837.05894	0.320297223
835.13024	0.320754717
833.20153	0.32121691
831.27282	0.321428571
829.34411	0.321642088
827.41541	0.321986384
825.4867	0.322061192
823.55799	0.322136787
821.62929	0.322082147
819.70058	0.322026972
817.77187	0.322117357
815.84316	0.3215169
813.91446	0.321325052
811.98575	0.320848939
810.05704	0.320502092
808.12833	0.320016821
806.19963	0.319391635
804.27092	0.318914334
802.34221	0.318162484
800.41351	0.31713555
798.4848	0.316552901
796.55609	0.3158344
794.62738	0.314846416
792.69868	0.313859275
790.76997	0.312313592
788.84126	0.31106383
786.91255	0.30994898
784.98385	0.308542286
783.05514	0.307136788
781.12643	0.305307856
779.19773	0.30292745
777.26902	0.301102629
775.34031	0.299152542
773.4116	0.297205758
771.4829	0.29501268
769.55419	0.292827004
767.62548	0.290771176
765.69678	0.288720539
763.76807	0.285954584
761.83936	0.283312316
759.91065	0.281210593
757.98195	0.279108869
756.05324	0.276398822
754.12453	0.274220725
752.19582	0.271615352
750.26712	0.269117026
748.33841	0.267033432
746.4097	0.265167586
744.481	0.263292216
742.55229	0.261518771
740.62358	0.258989726
738.69487	0.257081545
736.76617	0.254412398
734.83746	0.252699784
732.90875	0.251084128
730.98004	0.249455812
729.05134	0.247814685
727.12263	0.246268657
725.19392	0.24525805
723.26522	0.244345898
721.33651	0.243423986
719.4078	0.242152466
717.47909	0.240757439
715.55039	0.239347235
713.62168	0.238030096
711.69297	0.236805874
709.76427	0.236380425
707.83556	0.235594796
705.90685	0.234798877
703.97814	0.234463277
702.04944	0.233285917
700.12073	0.232569245
698.19202	0.232323232
696.26331	0.232073643
694.33461	0.231933594
692.4059	0.231791339
690.47719	0.231150794
688.54849	0.231
686.61978	0.230458901
684.69107	0.230142566
682.76236	0.229820051
680.83366	0.229253112
678.90495	0.229199372
676.97624	0.229144667
675.04753	0.228678038
673.11883	0.228325256
671.19012	0.22796518
669.26141	0.228697086
667.33271	0.228206552
665.404	0.228266966
663.47529	0.22776204
661.54658	0.227246709
659.61788	0.227299017
657.68917	0.227352425
655.76046	0.227541371
653.83176	0.227272727
651.90305	0.226723096
649.97434	0.226772616
648.04563	0.226683138
646.11693	0.226450405
644.18822	0.226557583
642.25951	0.226810673
640.3308	0.227710071
638.4021	0.227184466
636.47339	0.226143791
634.54468	0.225231176
632.61598	0.22459893
630.68727	0.225304465
628.75856	0.224811515
626.82985	0.225
624.90115	0.225897255
622.97244	0.226105563
621.04373	0.225433526
619.11502	0.2253109
617.18632	0.224852071
615.25761	0.225710015
613.3289	0.225490196
611.4002	0.225683891
609.47149	0.225114855
607.54278	0.224537037
605.61407	0.224902724
603.68537	0.224489796
601.75666	0.224247227
