4999.20917	0.444705882
4997.28046	0.444964871
4995.35176	0.443925234
4993.42305	0.445221445
4991.49434	0.444186047
4989.56564	0.445475638
4987.63693	0.444444444
4985.70822	0.446759259
4983.77951	0.445727483
4981.85081	0.444700461
4979.9221	0.443678161
4977.99339	0.444954128
4976.06468	0.443935927
4974.13598	0.445205479
4972.20727	0.444191344
4970.27856	0.446469248
4968.34986	0.445454545
4966.42115	0.444444444
4964.49244	0.445701357
4962.56373	0.44469526
4960.63503	0.443693694
4958.70632	0.44494382
4956.77761	0.443946188
4954.8489	0.44295302
4952.9202	0.444196429
4950.99149	0.443207127
4949.06278	0.444444444
4947.13408	0.445676275
4945.20537	0.444690265
4943.27666	0.445916115
4941.34795	0.444933921
4939.41925	0.446153846
4937.49054	0.445175439
4935.56183	0.444201313
4933.63313	0.445414847
4931.70442	0.444444444
4929.77571	0.443478261
4927.847	0.444685466
4925.9183	0.443722944
4923.98959	0.444924406
4922.06088	0.443965517
4920.13217	0.44516129
4918.20347	0.444206009
4916.27476	0.443254818
4914.34605	0.444444444
4912.41735	0.445628998
4910.48864	0.444680851
4908.55993	0.44373673
4906.63122	0.444915254
4904.70252	0.44397463
4902.77381	0.445147679
4900.8451	0.444210526
4898.91639	0.445378151
4896.98769	0.444444444
4895.05898	0.445606695
4893.13027	0.444676409
4891.20157	0.445833333
4889.27286	0.444906445
4887.34415	0.443983402
4885.41544	0.445134576
4883.48674	0.443298969
4881.55803	0.444444444
4879.62932	0.446502058
4877.70062	0.444672131
4875.77191	0.443762781
4873.8432	0.444897959
4871.91449	0.443991853
4869.98579	0.443089431
4868.05708	0.444219067
4866.12837	0.442424242
4864.19966	0.444444444
4862.27096	0.445564516
4860.34225	0.444668008
4858.41354	0.445783133
4856.48484	0.44488978
4854.55613	0.444
4852.62742	0.44510978
4850.69871	0.44333996
4848.77001	0.444444444
4846.8413	0.443564356
4844.91259	0.444664032
4842.98388	0.444664032
4841.05518	0.445759369
4839.12647	0.444007859
4837.19776	0.445098039
4835.26906	0.444227006
4833.34035	0.4453125
4831.41164	0.444444444
4829.48293	0.445525292
4827.55423	0.444660194
4825.62552	0.442940039
4823.69681	0.444015444
4821.76811	0.445086705
4819.8394	0.444230769
4817.91069	0.445297505
4815.98198	0.444444444
4814.05328	0.444656489
4812.12457	0.443809524
4810.19586	0.442965779
4808.26715	0.44402277
4806.33845	0.443181818
4804.40974	0.444234405
4802.48103	0.445283019
4800.55233	0.446327684
4798.62362	0.444652908
4796.69491	0.443820225
4794.7662	0.442990654
4792.8375	0.444029851
4790.90879	0.445065177
4788.98008	0.443413729
4787.05137	0.444444444
4785.12267	0.445471349
4783.19396	0.444649446
4781.26525	0.443830571
4779.33655	0.444036697
4777.40784	0.443223443
4775.47913	0.442413163
4773.55042	0.443430657
4771.62172	0.444444444
4769.69301	0.443636364
4767.7643	0.444646098
4765.8356	0.445652174
4763.90689	0.444043321
4761.97818	0.445045045
4760.04947	0.444244604
4758.12077	0.44524237
4756.19206	0.444444444
4754.26335	0.445438283
4752.33464	0.443850267
4750.40594	0.444839858
4748.47723	0.443262411
4746.54852	0.442477876
4744.61982	0.443462898
4742.69111	0.444444444
4740.7624	0.445422535
4738.83369	0.444639719
4736.90499	0.445614035
4734.97628	0.444055944
4733.04757	0.443280977
4731.11886	0.443478261
4729.19016	0.444444444
4727.26145	0.443674177
4725.33274	0.444636678
4723.40404	0.443868739
4721.47533	0.444827586
4719.54662	0.443298969
4717.61791	0.444253859
4715.68921	0.443493151
4713.7605	0.443686007
4711.83179	0.442930153
4709.90308	0.443877551
4707.97438	0.443123939
4706.04567	0.444067797
4704.11696	0.443316413
4702.18826	0.443507589
4700.25955	0.444444444
4698.33084	0.444630872
4696.40213	0.443886097
4694.47343	0.444816054
4692.54472	0.443333333
4690.61601	0.444259567
4688.68731	0.443521595
4686.7586	0.444444444
4684.82989	0.442975207
4682.90118	0.443894389
4680.97248	0.443163097
4679.04377	0.443349754
4677.11506	0.444262295
4675.18635	0.443535188
4673.25765	0.444444444
4671.32894	0.443719413
4669.40023	0.443902439
4667.47153	0.443181818
4665.54282	0.443365696
4663.61411	0.442649435
4661.6854	0.443548387
4659.7567	0.444444444
4657.82799	0.443729904
4655.89928	0.443910256
4653.97057	0.4432
4652.04187	0.44338118
4650.11316	0.444267516
4648.18445	0.443561208
4646.25575	0.443740095
4644.32704	0.442338073
4642.39833	0.443217666
4640.46962	0.444094488
4638.54092	0.443396226
4636.61221	0.443573668
4634.6835	0.442879499
4632.7548	0.44375
4630.82609	0.442367601
4628.89738	0.443234837
4626.96867	0.441860465
4625.03997	0.442724458
4623.11126	0.442901235
4621.18255	0.442218798
4619.25384	0.443076923
4617.32514	0.443932412
4615.39643	0.442572741
4613.46772	0.442748092
4611.53902	0.442073171
4609.61031	0.442922374
4607.6816	0.44224924
4605.75289	0.442424242
4603.82419	0.443267776
4601.89548	0.441930618
4599.96677	0.442771084
4598.03806	0.443609023
4596.10936	0.442278861
4594.18065	0.441616766
4592.25194	0.441791045
4590.32324	0.442622951
4588.39453	0.443452381
4586.46582	0.442136499
4584.53711	0.441481481
4582.60841	0.441654357
4580.6797	0.442477876
4578.75099	0.441826215
4576.82229	0.441997063
4574.89358	0.442815249
4572.96487	0.441520468
4571.03616	0.442335766
4569.10746	0.441048035
4567.17875	0.441860465
4565.25004	0.442028986
4563.32133	0.441389291
4561.39263	0.442196532
4559.46392	0.442363112
4557.53521	0.441726619
4555.60651	0.441893831
4553.6778	0.44269341
4551.74909	0.441428571
4549.82038	0.442225392
4547.89168	0.443019943
4545.96297	0.441761364
4544.03426	0.442553191
4542.10555	0.4427157
4540.17685	0.442090395
4538.24814	0.44084507
4536.31943	0.441631505
4534.39073	0.441795231
4532.46202	0.441176471
4530.53331	0.441958042
4528.6046	0.440725244
4526.6759	0.441504178
4524.74719	0.441666667
4522.81848	0.441054092
4520.88978	0.441217151
4518.96107	0.44137931
4517.03236	0.44214876
4515.10365	0.442307692
4513.17495	0.44170096
4511.24624	0.441860465
4509.31753	0.442622951
4507.38882	0.441416894
4505.46012	0.442176871
4503.53141	0.440976934
4501.6027	0.441734417
4499.674	0.440540541
4497.74529	0.441295547
4495.81658	0.441453567
4493.88787	0.442204301
4491.95917	0.441018767
4490.03046	0.441767068
4488.10175	0.44058745
4486.17304	0.441333333
4484.24434	0.441489362
4482.31563	0.442231076
4480.38692	0.441059603
4478.45822	0.441215324
4476.52951	0.440633245
4474.6008	0.440789474
4472.67209	0.44021025
4470.74339	0.440366972
4468.81468	0.440522876
4466.88597	0.441253264
4464.95727	0.440104167
4463.02856	0.44083225
4461.09985	0.440985733
4459.17114	0.440414508
4457.24244	0.440568475
4455.31373	0.441290323
4453.38502	0.44015444
4451.45631	0.440874036
4449.52761	0.43974359
4447.5989	0.439897698
4445.67019	0.440613027
4443.74149	0.440764331
4441.81278	0.440203562
4439.88407	0.44035533
4437.95536	0.439797212
4436.02666	0.439949431
4434.09795	0.440100883
4432.16924	0.439546599
4430.24053	0.439698492
4428.31183	0.439849624
4426.38312	0.440550688
4424.45441	0.439450687
4422.52571	0.440149626
4420.597	0.440298507
4418.66829	0.440993789
4416.73958	0.439900867
4414.81088	0.440049444
4412.88217	0.440197287
4410.95346	0.440344403
4409.02476	0.441031941
4407.09605	0.43995098
4405.16734	0.439412485
4403.23863	0.43956044
4401.30993	0.43902439
4399.38122	0.439172749
4397.45251	0.439320388
4395.5238	0.44
4393.5951	0.440145103
4391.66639	0.440821256
4389.73768	0.439759036
4387.80898	0.439903846
4385.88027	0.44057623
4383.95156	0.439520958
4382.02285	0.439665472
4380.09415	0.439140811
4378.16544	0.439285714
4376.23673	0.439952438
4374.30802	0.440094899
4372.37932	0.440236686
4370.45061	0.440377804
4368.5219	0.4393404
4366.5932	0.44
4364.66449	0.438967136
4362.73578	0.43911007
4360.80707	0.439252336
4358.87837	0.439393939
4356.94966	0.438372093
4355.02095	0.43902439
4353.09225	0.439165701
4351.16354	0.439306358
4349.23483	0.438799076
4347.30612	0.438940092
4345.37742	0.439585731
4343.44871	0.439724455
4341.52	0.439862543
4339.59129	0.438857143
4337.66259	0.438996579
4335.73388	0.439635535
4333.80517	0.438636364
4331.87647	0.43877551
4329.94776	0.438914027
4328.01905	0.438418079
4326.09034	0.438556933
4324.16164	0.438695163
4322.23293	0.438832772
4320.30422	0.438340807
4318.37551	0.438478747
4316.44681	0.438616071
4314.5181	0.438752784
4312.58939	0.437777778
4310.66069	0.437915743
4308.73198	0.438538206
4306.80327	0.438674033
4304.87456	0.437706725
4302.94586	0.437843784
4301.01715	0.438461538
4299.08844	0.438596491
4297.15974	0.437636761
4295.23103	0.437772926
4293.30232	0.436819172
4291.37361	0.436956522
4289.44491	0.437567861
4287.5162	0.437703142
4285.58749	0.437837838
4283.65878	0.437971953
4281.73008	0.438577586
4279.80137	0.438709677
4277.87266	0.43776824
4275.94396	0.437901499
4274.01525	0.436965812
4272.08654	0.437100213
4270.15783	0.437234043
4268.22913	0.437832094
4266.30042	0.437963945
4264.37171	0.437037037
4262.443	0.437170011
4260.5143	0.437302424
4258.58559	0.436382755
4256.65688	0.436516264
4254.72818	0.436649215
4252.79947	0.436781609
4250.87076	0.43736952
4248.94205	0.4375
4247.01335	0.437044745
4245.08464	0.437175493
4243.15593	0.437305699
4241.22723	0.437435367
4239.29852	0.437113402
4237.36981	0.437242798
4235.4411	0.436793422
4233.5124	0.436923077
4231.58369	0.437052201
4229.65498	0.436159346
4227.72627	0.436289501
4225.79757	0.436419125
4223.86886	0.436548223
4221.94015	0.436676798
4220.01145	0.437246964
4218.08274	0.436363636
4216.15403	0.436491935
4214.22532	0.436619718
4212.29662	0.435742972
4210.36791	0.435871743
4208.4392	0.436436436
4206.51049	0.436127745
4204.58179	0.43625498
4202.65308	0.435387674
4200.72437	0.435515873
4198.79567	0.435643564
4196.86696	0.435770751
4194.93825	0.434911243
4193.00954	0.43503937
4191.08084	0.435594887
4189.15213	0.435721295
4187.22342	0.435847209
4185.29472	0.43597263
4183.36601	0.436097561
4181.4373	0.436647173
4179.50859	0.43537415
4177.57989	0.435499515
4175.65118	0.435624395
4173.72247	0.435748792
4171.79376	0.43587271
4169.86506	0.43599615
4167.93635	0.435158501
4166.00764	0.4348659
4164.07894	0.43499044
4162.15023	0.435530086
4160.22152	0.435653003
4158.29281	0.434823977
4156.36411	0.434947768
4154.4354	0.43507109
4152.50669	0.435193945
4150.57798	0.435316336
4148.64928	0.435438266
4146.72057	0.435559737
4144.79186	0.435272045
4142.86316	0.435393258
4140.93445	0.434579439
4139.00574	0.434701493
4137.07703	0.434823091
4135.14833	0.43401487
4133.21962	0.434137291
4131.29091	0.434259259
4129.36221	0.434782609
4127.4335	0.434903047
4125.50479	0.435023041
4123.57608	0.434742647
4121.64738	0.434862385
4119.71867	0.434065934
4117.78996	0.434186472
4115.86125	0.434306569
4113.93255	0.43442623
4112.00384	0.434545455
4110.07513	0.434664247
4108.14643	0.433484163
4106.21772	0.433604336
4104.28901	0.433724076
4102.3603	0.433843384
4100.4316	0.433962264
4098.50289	0.434080717
4096.57418	0.434198747
4094.64547	0.434316354
4092.71677	0.433541481
4090.78806	0.43365984
4088.85935	0.433777778
4086.93065	0.433510638
4085.00194	0.433628319
4083.07323	0.433745583
4081.14452	0.433862434
4079.21582	0.433098592
4077.28711	0.433216169
4075.3584	0.433333333
4073.4297	0.433450088
4071.50099	0.433566434
4069.57228	0.433682373
4067.64357	0.432550044
4065.71487	0.432667246
4063.78616	0.432784042
4061.85745	0.432900433
4059.92874	0.431778929
4058.00004	0.432758621
4056.07133	0.432874355
4054.14262	0.432618026
4052.21392	0.432246998
4050.28521	0.432363014
4048.3565	0.432478632
4046.42779	0.432593857
4044.49909	0.432340426
4042.57038	0.432455395
4040.64167	0.432569975
4038.71296	0.432684166
4036.78426	0.432432432
4034.85555	0.432546374
4032.92684	0.431818182
4030.99814	0.431932773
4029.06943	0.431684828
4027.14072	0.431799163
4025.21201	0.431913116
4023.28331	0.431192661
4021.3546	0.430948419
4019.42589	0.431063123
4017.49719	0.431177446
4015.56848	0.431291391
4013.63977	0.431404959
4011.71106	0.431162407
4009.78236	0.43127572
4007.85365	0.431388661
4005.92494	0.431147541
4003.99623	0.431260229
4002.06753	0.431372549
4000.13882	0.431132844
3998.21011	0.431244915
3996.28141	0.431356621
3994.3527	0.431467964
3992.42399	0.431578947
3990.49528	0.430881164
3988.56658	0.430992736
3986.63787	0.430756844
3984.70916	0.430868167
3982.78045	0.43063352
3980.85175	0.430744596
3978.92304	0.430855316
3976.99433	0.430965682
3975.06563	0.431075697
3973.13692	0.430842607
3971.20821	0.43015873
3969.2795	0.429928741
3967.3508	0.430039526
3965.42209	0.430149961
3963.49338	0.430260047
3961.56468	0.430031447
3959.63597	0.430926217
3957.70726	0.430250784
3955.77855	0.430023456
3953.84985	0.430132709
3951.92114	0.430241621
3949.99243	0.430350195
3948.06372	0.43045843
3946.13502	0.429457364
3944.20631	0.429566563
3942.2776	0.429343629
3940.3489	0.429121726
3938.42019	0.429669485
3936.49148	0.429777437
3934.56277	0.429447853
3932.63407	0.429555896
3930.70536	0.429335371
3928.77665	0.429443173
3926.84794	0.429223744
3924.91924	0.429331307
3922.99053	0.428679818
3921.06182	0.428787879
3919.13312	0.428895613
3917.20441	0.429003021
3915.2757	0.428463855
3913.34699	0.428678679
3911.41829	0.428464419
3909.48958	0.428571429
3907.56087	0.428571429
3905.63217	0.428143713
3903.70346	0.428571429
3901.77475	0.428678118
3899.84604	0.428890544
3897.91734	0.428783383
3895.98863	0.428254438
3894.05992	0.428360414
3892.13121	0.428466077
3890.20251	0.428571429
3888.2738	0.427941176
3886.34509	0.428361499
3884.41639	0.428152493
3882.48768	0.427944404
3880.55897	0.427737226
3878.63026	0.427219796
3876.70156	0.427015251
3874.77285	0.42743106
3872.84414	0.428156749
3870.91543	0.427846265
3868.98673	0.428364689
3867.05802	0.427849928
3865.12931	0.427645788
3863.20061	0.427442529
3861.2719	0.426934097
3859.34319	0.426733381
3857.41448	0.427038627
3855.48578	0.426829268
3853.55707	0.427240143
3851.62836	0.426942267
3849.69966	0.426647768
3847.77095	0.426553672
3845.84224	0.426252646
3843.91353	0.426657264
3841.98483	0.426356589
3840.05612	0.426760563
3838.12741	0.426863572
3836.1987	0.426367461
3834.27	0.426573427
3832.34129	0.426378227
3830.41258	0.426583159
3828.48388	0.426388889
3826.55517	0.426195426
3824.62646	0.426888427
3822.69775	0.426195426
3820.76905	0.426297578
3818.84034	0.425810904
3816.91163	0.425619835
3814.98292	0.425531915
3813.05422	0.425444596
3811.12551	0.425938567
3809.1968	0.425938567
3807.2681	0.425357873
3805.33939	0.425459496
3803.41068	0.42585034
3801.48197	0.425271739
3799.55327	0.425474255
3797.62456	0.425675676
3795.69585	0.425202156
3793.76715	0.425403226
3791.83844	0.424932976
3789.90973	0.424749164
3787.98102	0.424849699
3786.05232	0.424949967
3784.12361	0.424766977
3782.1949	0.424867021
3780.26619	0.425249169
3778.33749	0.424784626
3776.40878	0.424322538
3774.48007	0.42414248
3772.55137	0.424522083
3770.62266	0.424901186
3768.69395	0.424720579
3766.76524	0.424540682
3764.83654	0.425016372
3762.90783	0.424836601
3760.97912	0.424281984
3759.05041	0.423728814
3757.12171	0.423552375
3755.193	0.423927178
3753.26429	0.423828125
3751.33559	0.423828125
3749.40688	0.423651722
3747.47817	0.423476005
3745.54946	0.423476005
3743.62076	0.423400129
3741.69205	0.423794212
3739.76334	0.4233483
3737.83464	0.423620026
3735.90593	0.4233483
3733.97722	0.423544466
3732.04851	0.423836839
3730.11981	0.423492063
3728.1911	0.423320659
3726.26239	0.423417722
3724.33368	0.423246999
3722.40498	0.423076923
3720.47627	0.422641509
3718.54756	0.422835634
3716.61886	0.422932331
3714.69015	0.422932331
3712.76144	0.422305764
3710.83273	0.422138837
3708.90403	0.422429907
3706.97532	0.422360248
3705.04661	0.422456576
3703.1179	0.422552664
3701.1892	0.422029703
3699.26049	0.421961752
3697.33178	0.42179803
3695.40308	0.421894219
3693.47437	0.421894219
3691.54566	0.421894219
3689.61695	0.421634911
3687.68825	0.421568627
3685.75954	0.421855922
3683.83083	0.42178941
3681.90213	0.421276596
3679.97342	0.421276596
3678.04471	0.420924574
3676.116	0.421180767
3674.1873	0.421020656
3672.25859	0.421212121
3670.32988	0.421052632
3668.40117	0.420989144
3666.47247	0.421021021
3664.54376	0.420611144
3662.61505	0.420706164
3660.68635	0.420800956
3658.75764	0.420800956
3656.82893	0.421146953
3654.90022	0.420989863
3652.97152	0.42039356
3651.04281	0.420298507
3649.1141	0.420644391
3647.18539	0.420332937
3645.25669	0.420023697
3643.32798	0.41996456
3641.39927	0.419811321
3639.47057	0.419905771
3637.54186	0.42
3635.61315	0.420094007
3633.68444	0.420094007
3631.75574	0.419753086
3629.82703	0.419658623
3627.89832	0.419014085
3625.96961	0.419298246
3624.04091	0.419486581
3622.1122	0.419486581
3620.18349	0.419486581
3618.25479	0.418997669
3616.32608	0.418848168
3614.39737	0.418942475
3612.46866	0.418699187
3610.53996	0.418456181
3608.61125	0.418308227
3606.68254	0.41849711
3604.75384	0.41810842
3602.82513	0.418202765
3600.89642	0.418296893
3598.96771	0.418390805
3597.03901	0.417910448
3595.1103	0.418004587
3593.18159	0.418098511
3591.25288	0.417620137
3589.32418	0.417620137
3587.39547	0.417714286
3585.46676	0.417901938
3583.53806	0.417519909
3581.60935	0.417613636
3579.68064	0.417707151
3577.75193	0.417800454
3575.82323	0.417091115
3573.89452	0.41718485
3571.96581	0.417514124
3570.0371	0.416949153
3568.1084	0.416949153
3566.17969	0.416807671
3564.25098	0.416994935
3562.32228	0.416853933
3560.39357	0.416713404
3558.46486	0.416246499
3556.53615	0.416340235
3554.60745	0.416666667
3552.67874	0.416201117
3550.75003	0.416294643
3548.82133	0.41638796
3546.89262	0.416155989
3544.96391	0.416017798
3543.0352	0.416435314
3541.1065	0.415973378
3539.17779	0.416066482
3537.24908	0.415605977
3535.32037	0.415469613
3533.39167	0.415562914
3531.46296	0.415885273
3529.53425	0.415656009
3527.60555	0.415426997
3525.67684	0.415520088
3523.74813	0.415063222
3521.81942	0.41492865
3519.89072	0.41502193
3517.96201	0.415115005
3516.0333	0.415207877
3514.10459	0.414527581
3512.17589	0.41462084
3510.24718	0.414168937
3508.31847	0.414262384
3506.38977	0.414355628
3504.46106	0.414673913
3502.53235	0.414541508
3500.60364	0.414634146
3498.67494	0.413961039
3496.74623	0.414054054
3494.81752	0.414146868
3492.88882	0.413700108
3490.96011	0.413793103
3489.0314	0.413347686
3487.10269	0.41344086
3485.17399	0.413311863
3483.24528	0.413404826
3481.31657	0.41349759
3479.38786	0.413368984
3477.45916	0.413461538
3475.53045	0.413553895
3473.60174	0.413425679
3471.67304	0.413517829
3469.74433	0.413390011
3467.81562	0.413481953
3465.88691	0.412824589
3463.95821	0.412916887
3462.0295	0.412790698
3460.10079	0.412664908
3458.17208	0.412756985
3456.24338	0.412631579
3454.31467	0.412506569
3452.38596	0.412598425
3450.45726	0.412690089
3448.52855	0.412257727
3446.59984	0.412133891
3444.67113	0.412225705
3442.74243	0.412102243
3440.81372	0.411979167
3438.88501	0.411856474
3436.95631	0.412253375
3435.0276	0.412130638
3433.09889	0.411490683
3431.17018	0.411369509
3429.24148	0.41124871
3427.31277	0.411643483
3425.38406	0.411522634
3423.45535	0.411915768
3421.52665	0.411794872
3419.59794	0.411674347
3417.66923	0.411343894
3415.74053	0.41122449
3413.81182	0.411105451
3411.88311	0.411195929
3409.9544	0.411077236
3408.0257	0.411167513
3406.09699	0.411049164
3404.16828	0.410931174
3402.23957	0.410813542
3400.31087	0.410696266
3398.38216	0.410579345
3396.45345	0.410759175
3394.52475	0.41064257
3392.59604	0.410821643
3390.66733	0.4105
3388.73862	0.410179641
3386.80992	0.410064773
3384.88121	0.409950249
3382.9525	0.409836066
3381.0238	0.410014874
3379.09509	0.40990099
3377.16638	0.41028176
3375.23767	0.410167818
3373.30897	0.409852217
3371.38026	0.409247418
3369.45155	0.409626719
3367.52284	0.409514468
3365.59414	0.409402547
3363.66543	0.409290954
3361.73672	0.409468033
3359.80802	0.409356725
3357.87931	0.409245742
3355.9506	0.409135083
3354.02189	0.408826382
3352.09319	0.408716707
3350.16448	0.40860735
3348.23577	0.408981169
3346.30706	0.408871745
3344.37836	0.408565929
3342.44965	0.408457472
3340.52094	0.408349328
3338.59224	0.408241495
3336.66353	0.40861244
3334.73482	0.408309456
3332.80611	0.408202194
3330.87741	0.408095238
3328.9487	0.407794677
3327.01999	0.407688657
3325.09129	0.408056872
3323.16258	0.407950781
3321.23387	0.407652338
3319.30516	0.40754717
3317.37646	0.407442299
3315.44775	0.40780809
3313.51904	0.407511737
3311.59033	0.407216495
3309.66163	0.407390084
3307.73292	0.407286315
3305.80421	0.407182836
3303.87551	0.40689013
3301.9468	0.406598513
3300.01809	0.4067718
3298.08938	0.406669755
3296.16068	0.406842349
3294.23197	0.406740536
3292.30326	0.406451613
3290.37455	0.406350667
3288.44585	0.40606339
3286.51714	0.406422018
3284.58843	0.406135531
3282.65973	0.406492913
3280.73102	0.406207211
3278.80231	0.406378132
3276.8736	0.406093679
3274.9449	0.406264185
3273.01619	0.406165005
3271.08748	0.405882353
3269.15878	0.405600723
3267.23007	0.405502932
3265.30136	0.40567312
3263.37265	0.40557554
3261.44395	0.405745063
3259.51524	0.40546595
3257.58653	0.405369128
3255.65782	0.405091559
3253.72912	0.40544157
3251.80041	0.405164737
3249.8717	0.404888889
3247.943	0.404793609
3246.01429	0.405141844
3244.08558	0.404867257
3242.15687	0.405035336
3240.22817	0.40494045
3238.29946	0.404667547
3236.37075	0.404835165
3234.44204	0.404563405
3232.51334	0.404292597
3230.58463	0.404022737
3228.65592	0.404366812
3226.72722	0.404097646
3224.79851	0.404264578
3222.8698	0.404172099
3220.94109	0.404338395
3219.01239	0.404071026
3217.08368	0.403804583
3215.15497	0.403539059
3213.22627	0.403448276
3211.29756	0.403614458
3209.36885	0.403780069
3207.44014	0.403343335
3205.51144	0.403253425
3203.58273	0.403418803
3201.65402	0.403156997
3199.72531	0.403067746
3197.79661	0.403232667
3195.8679	0.402972399
3193.93919	0.402713014
3192.01049	0.402877698
3190.08178	0.402619349
3188.15307	0.402953586
3186.22436	0.402695872
3184.29566	0.402859546
3182.36695	0.402602855
3180.43824	0.402347024
3178.50953	0.40209205
3176.58083	0.402255639
3174.65212	0.402001668
3172.72341	0.402164863
3170.79471	0.401911887
3168.866	0.402241594
3166.93729	0.401989225
3165.00858	0.401737691
3163.07988	0.401900041
3161.15117	0.401649485
3159.22246	0.401811445
3157.29376	0.401561858
3155.36505	0.40131309
3153.43634	0.401474805
3151.50763	0.401226994
3149.57893	0.401388322
3147.65022	0.401305057
3145.72151	0.401465798
3143.7928	0.401219512
3141.8641	0.40137987
3139.93539	0.400972053
3138.00668	0.400889968
3136.07798	0.400646204
3134.14927	0.400806452
3132.22056	0.400966184
3130.29185	0.400562475
3128.36315	0.400722022
3126.43444	0.400641026
3124.50573	0.4004
3122.57702	0.400559105
3120.64832	0.400318979
3118.71961	0.400318345
3116.7909	0.40007946
3114.8622	0.400238001
3112.93349	0.4
3111.00478	0.400158165
3109.07607	0.399921042
3107.14737	0.399527187
3105.21866	0.399291896
3103.28995	0.399607073
3101.36125	0.399372303
3099.43254	0.399529965
3097.50383	0.399530884
3095.57512	0.399297424
3093.64642	0.399064692
3091.71771	0.398832685
3089.789	0.398989899
3087.86029	0.398991857
3085.93159	0.399148277
3084.00288	0.399071926
3082.07417	0.399227799
3080.14547	0.398997687
3078.21676	0.398999615
3076.28805	0.398770649
3074.35934	0.398389571
3072.43064	0.398545176
3070.50193	0.398700306
3068.57322	0.39862543
3066.64451	0.39839878
3064.71581	0.398553483
3062.7871	0.398327632
3060.85839	0.397951442
3058.92969	0.397727273
3057.00098	0.397503782
3055.07227	0.397508494
3053.14356	0.397663023
3051.21486	0.397440723
3049.28615	0.397744361
3047.35744	0.397897898
3045.42874	0.397676162
3043.50003	0.39745509
3041.57132	0.397234679
3039.64261	0.39738806
3037.71391	0.397020484
3035.7852	0.397173671
3033.85649	0.396955069
3031.92778	0.396884273
3029.99908	0.397037037
3028.07037	0.396819527
3026.14166	0.396971935
3024.21296	0.396755162
3022.28425	0.396685083
3020.35554	0.396837072
3018.42683	0.396621373
3016.49813	0.396551724
3014.56942	0.396336996
3012.64071	0.396122897
3010.712	0.396054074
3008.7833	0.396350365
3006.85459	0.396137026
3004.92588	0.396068438
3002.99718	0.395636364
3001.06847	0.395568471
2999.13976	0.395500726
2997.21105	0.395576505
2995.28235	0.395652174
2993.35364	0.395727734
2991.42493	0.395441389
2989.49623	0.395298373
2987.56752	0.395155459
2985.63881	0.395155459
2983.7101	0.395155459
2981.7814	0.395155459
2979.85269	0.395079595
2977.92398	0.394641564
2975.99527	0.394851342
2974.06657	0.394841991
2972.13786	0.394612304
2970.20915	0.394890511
2968.28045	0.394804244
2966.35174	0.394794721
2964.42303	0.394717535
2962.49432	0.394794721
2960.56562	0.394294075
2958.63691	0.394237783
2956.7082	0.394258721
2954.77949	0.394136808
2952.85079	0.394157952
2950.92208	0.393961179
2948.99337	0.394048046
2947.06467	0.393700787
2945.13596	0.393993565
2943.20725	0.39371204
2941.27854	0.39371204
2939.34984	0.39371204
2937.42113	0.393495354
2935.49242	0.393495354
2933.56372	0.39335477
2931.63501	0.393214286
2929.7063	0.393150196
2927.77759	0.392946206
2925.84889	0.392958748
2923.92018	0.392692444
2921.99147	0.392642377
2920.06276	0.39280677
2918.13406	0.392480675
2916.20535	0.392644483
2914.27664	0.392458101
2912.34794	0.392272885
2910.41923	0.392224922
2908.49052	0.392102529
2906.56181	0.391845197
2904.63311	0.392068966
2902.7044	0.391812865
2900.77569	0.391901167
2898.84698	0.391646696
2896.91828	0.391868808
2894.98957	0.391749062
2893.06086	0.391629806
2891.13216	0.391644022
2889.20345	0.391319091
2887.27474	0.390995261
2885.34603	0.391274941
2883.41733	0.391216216
2881.48862	0.391157611
2879.55991	0.390893761
2877.63121	0.391099123
2875.7025	0.39083558
2873.77379	0.391114103
2871.84508	0.390793011
2869.91638	0.390808454
2867.98767	0.390488948
2866.05896	0.390504848
2864.13025	0.389983306
2862.20155	0.390260173
2860.27284	0.390073284
2858.34413	0.390349418
2856.41543	0.390033223
2854.48672	0.389718076
2852.55801	0.389937107
2850.6293	0.389897656
2848.7006	0.389730086
2846.77189	0.389891697
2844.84318	0.389725131
2842.91447	0.389686684
2840.98577	0.389449691
2839.05706	0.389538661
2837.12835	0.389303079
2835.19965	0.389194435
2833.27094	0.389211886
2831.34223	0.388906804
2829.41352	0.388924662
2827.48482	0.388942462
2825.55611	0.388960205
2823.6274	0.388977892
2821.6987	0.3888
2819.76999	0.388622563
2817.84128	0.388321634
2815.91257	0.388340236
2813.98387	0.388482342
2812.05516	0.388182973
2810.12645	0.388007614
2808.19774	0.3878327
2806.26904	0.387974684
2804.34033	0.387800253
2802.41162	0.387941919
2800.48292	0.38776797
2798.55421	0.387472458
2796.6255	0.387613958
2794.69679	0.387319523
2792.76809	0.387460815
2790.83938	0.387288666
2788.91067	0.387429644
2786.98196	0.387449266
2785.05326	0.38727783
2783.12455	0.38710682
2781.19584	0.386936236
2779.26714	0.386956522
2777.33843	0.386906609
2775.40972	0.3866171
2773.48101	0.386757426
2771.55231	0.386588381
2769.6236	0.386728395
2767.69489	0.386559803
2765.76619	0.386391626
2763.83748	0.386223862
2761.90877	0.386056511
2759.98006	0.386196319
2758.05136	0.386029412
2756.12265	0.385862913
2754.19394	0.386002445
2752.26523	0.385836386
2750.33653	0.38597561
2748.40782	0.385809988
2746.47911	0.385948905
2744.55041	0.385783718
2742.6217	0.385618932
2740.69299	0.385454545
2738.76428	0.385290557
2736.83558	0.385126965
2734.90687	0.384963768
2732.97816	0.385102533
2731.04945	0.384939759
2729.12075	0.385078219
2727.19204	0.384915865
2725.26333	0.384753902
2723.33463	0.384477075
2721.40592	0.384615385
2719.47721	0.38445441
2717.5485	0.384592416
2715.6198	0.384431852
2713.69109	0.384271671
2711.76238	0.384111871
2709.83368	0.383952452
2707.90497	0.384090234
2705.97626	0.383931218
2704.04755	0.383772579
2702.11885	0.383910086
2700.19014	0.383751846
2698.26143	0.383593981
2696.33272	0.383436487
2694.40402	0.383279364
2692.47531	0.383416642
2690.5466	0.383259912
2688.6179	0.383396891
2686.68919	0.383240551
2684.76048	0.383084577
2682.83177	0.382817066
2680.90307	0.382953882
2678.97436	0.382798834
2677.04565	0.382644147
2675.11694	0.382780686
2673.18824	0.38262638
2671.25953	0.382472432
2669.33082	0.382318841
2667.40212	0.382165605
2665.47341	0.382412496
2663.5447	0.382149047
2661.61599	0.381996538
2659.68729	0.38184438
2657.75858	0.381692573
2655.82987	0.381828637
2653.90117	0.381677197
2651.97246	0.381526104
2650.04375	0.381375358
2648.11504	0.381224957
2646.18634	0.381251786
2644.25763	0.381101913
2642.32892	0.381237525
2640.40021	0.381088009
2638.47151	0.380938834
2636.5428	0.380898238
2634.61409	0.381033504
2632.68539	0.380884855
2630.75668	0.380736544
2628.82797	0.380588568
2626.89926	0.380440927
2624.97056	0.380575946
2623.04185	0.380321398
2621.11314	0.38045621
2619.18443	0.380309423
2617.25573	0.380162967
2615.32702	0.38001684
2613.39831	0.380151388
2611.46961	0.379899216
2609.5409	0.37986014
2607.61219	0.379715004
2605.68348	0.379464286
2603.75478	0.379319955
2601.82607	0.379454343
2599.89736	0.379310345
2597.96865	0.379549875
2596.03995	0.379406051
2594.11124	0.379262545
2592.18253	0.379014396
2590.25383	0.37914823
2588.32512	0.379005525
2586.39641	0.378863135
2584.4677	0.378721058
2582.539	0.378750344
2580.61029	0.378608743
2578.68158	0.378742104
2576.75288	0.378600823
2574.82417	0.378459852
2572.89546	0.37831919
2570.96675	0.378348824
2569.03805	0.378208629
2567.10934	0.37806874
2565.18063	0.377929155
2563.25192	0.377789875
2561.32322	0.377650897
2559.39451	0.377783813
2557.4658	0.377916441
2555.5371	0.377675427
2553.60839	0.377537212
2551.67968	0.377399297
2549.75097	0.37726168
2547.82227	0.377292341
2545.89356	0.377155172
2543.96485	0.377018299
2542.03614	0.377150538
2540.10744	0.377013963
2538.17873	0.376877682
2536.25002	0.376741693
2534.32132	0.376772812
2532.39261	0.376637263
2530.4639	0.376401495
2528.53519	0.376533333
2526.60649	0.376398508
2524.67778	0.37626397
2522.74907	0.376129718
2520.82037	0.376261285
2518.89166	0.376127321
2516.96295	0.37589404
2515.03424	0.376025404
2513.10554	0.375892149
2511.17683	0.375759176
2509.24812	0.375626484
2507.31941	0.375494071
2505.39071	0.375625165
2503.462	0.375394322
2501.53329	0.375262605
2499.60459	0.375393494
2497.67588	0.375163741
2495.74717	0.375032714
2493.81846	0.375163399
2491.88976	0.375032646
2489.96105	0.374804382
2488.03234	0.374934862
2486.10363	0.374804789
2484.17493	0.374674987
2482.24622	0.374448195
2480.31751	0.37457847
2478.38881	0.374449339
2476.4601	0.374320476
2474.53139	0.374353671
2472.60268	0.374225207
2470.67398	0.374000516
2468.74527	0.373872713
2466.81656	0.374002574
2464.88786	0.373875032
2462.95915	0.373747752
2461.03044	0.373524885
2459.10173	0.373398257
2457.17303	0.373432301
2455.24432	0.37330606
2453.31561	0.373435504
2451.3869	0.373564685
2449.4582	0.373343527
2447.52949	0.373217923
2445.60078	0.373092574
2443.67208	0.372872746
2441.74337	0.372748033
2439.81466	0.372782565
2437.88595	0.372658228
2435.95725	0.372534143
2434.02854	0.372662961
2432.09983	0.372445117
2430.17112	0.372321654
2428.24242	0.372104733
2426.31371	0.371981891
2424.385	0.372110553
2422.4563	0.371894605
2420.52759	0.372023063
2418.59888	0.371807712
2416.67017	0.371685843
2414.74147	0.371564218
2412.81276	0.371350137
2410.88405	0.371478434
2408.95535	0.37135741
2407.02664	0.371485444
2405.09793	0.371272366
2403.16922	0.371151936
2401.24052	0.370939747
2399.31181	0.370819916
2397.3831	0.370947785
2395.45439	0.37073653
2393.52569	0.370617284
2391.59698	0.370498273
2389.66827	0.370625924
2387.73957	0.370415949
2385.81086	0.370543398
2383.88215	0.370333988
2381.95344	0.370215898
2380.02474	0.370343137
2378.09603	0.370134639
2376.16732	0.370261678
2374.23861	0.370144149
2372.30991	0.370026849
2370.3812	0.369909778
2368.45249	0.369792935
2366.52379	0.36967632
2364.59508	0.369470102
2362.66637	0.369596892
2360.73766	0.36939122
2358.80896	0.369186047
2356.88025	0.369312682
2354.95154	0.369108049
2353.02284	0.36914534
2351.09413	0.369030391
2349.16542	0.368826789
2347.23671	0.368712395
2345.30801	0.36875
2343.3793	0.368724478
2341.45059	0.368610511
2339.52188	0.368736514
2337.59318	0.368534483
2335.66447	0.368332935
2333.73576	0.36837076
2331.80706	0.368257757
2329.87835	0.368057211
2327.94964	0.367944749
2326.02093	0.367982873
2324.09223	0.367783321
2322.16352	0.367821547
2320.23481	0.367709815
2318.3061	0.367748046
2316.3774	0.367549669
2314.44869	0.36735176
2312.51998	0.367476988
2310.59128	0.367279585
2308.66257	0.3671691
2306.73386	0.367207716
2304.80515	0.367097532
2302.87645	0.366901408
2300.94774	0.366791745
2299.01903	0.366596393
2297.09033	0.366721273
2295.16162	0.366526414
2293.23291	0.366651098
2291.3042	0.366542231
2289.3755	0.366433566
2287.44679	0.366557988
2285.51808	0.366449511
2283.58937	0.3662561
2281.66067	0.366063138
2279.73196	0.365955473
2277.80325	0.365848007
2275.87455	0.365887526
2273.94584	0.365780347
2272.01713	0.365673366
2270.08842	0.365482234
2268.15972	0.36560627
2266.23101	0.36549977
2264.3023	0.365309409
2262.37359	0.365433234
2260.44489	0.365243343
2258.51618	0.365137615
2256.58747	0.364948454
2254.65877	0.364759725
2252.73006	0.364571429
2250.80135	0.364695136
2248.87264	0.364735401
2246.94394	0.364547733
2245.01523	0.364588075
2243.08652	0.364401
2241.15782	0.364214351
2239.22911	0.364254933
2237.3004	0.364212911
2235.37169	0.364027149
2233.44299	0.364067797
2231.51428	0.363800497
2229.58557	0.363841298
2227.65686	0.363656834
2225.72816	0.363697706
2223.79945	0.363738486
2221.87074	0.363554758
2219.94204	0.363595606
2218.01333	0.36341245
2216.08462	0.363453366
2214.15591	0.363189636
2212.22721	0.363230701
2210.2985	0.363048808
2208.36979	0.36286732
2206.44108	0.362686235
2204.51238	0.362586092
2202.58367	0.362627608
2200.65496	0.362527716
2198.72626	0.362569214
2196.79755	0.362389381
2194.86884	0.362511052
2192.94013	0.362331641
2191.01143	0.362152625
2189.08272	0.362194316
2187.15401	0.362095532
2185.22531	0.361996921
2183.2966	0.362038664
2181.36789	0.361940299
2179.43918	0.361762771
2177.51048	0.361664841
2175.58177	0.361487965
2173.65306	0.361530055
2171.72435	0.361572052
2169.79565	0.361474695
2167.86694	0.361377507
2165.93823	0.361201829
2164.00953	0.361105069
2162.08082	0.36093003
2160.15211	0.360755372
2158.2234	0.360876166
2156.2947	0.360780065
2154.36599	0.360684131
2152.43728	0.360726644
2150.50857	0.360708883
2148.57987	0.360553035
2146.65116	0.360414866
2144.72245	0.360337006
2142.79375	0.3600863
2140.86504	0.360172228
2138.93633	0.359905458
2137.00762	0.359948487
2135.07892	0.359991424
2133.15021	0.359897172
2131.2215	0.359940081
2129.2928	0.359692242
2127.36409	0.359735269
2125.43538	0.359564939
2123.50667	0.359471553
2121.57797	0.359514687
2119.64926	0.359345099
2117.72055	0.359252178
2115.79184	0.359083192
2113.86314	0.359126563
2111.93443	0.359169843
2110.00572	0.359001481
2108.07702	0.358757659
2106.14831	0.358801182
2104.2196	0.358633776
2102.29089	0.358677338
2100.36219	0.358720808
2098.43348	0.358554014
2096.50477	0.358387571
2094.57606	0.358221477
2092.64736	0.358265242
2090.71865	0.358308916
2088.78994	0.358277592
2086.86124	0.358112341
2084.93253	0.358081335
2083.00382	0.357916667
2081.07511	0.357885976
2079.14641	0.357929744
2077.2177	0.357765781
2075.28899	0.357527997
2073.36029	0.357571991
2071.43158	0.35740894
2069.50287	0.357320099
2067.57416	0.357305228
2065.64546	0.357142857
2063.71675	0.357245929
2061.78804	0.357142857
2059.85933	0.357113487
2057.93063	0.357084189
2056.00192	0.357128205
2054.07321	0.356894079
2052.14451	0.356938191
2050.2158	0.356777755
2048.28709	0.356617647
2046.35838	0.356661906
2044.42968	0.356502242
2042.50097	0.356342904
2040.57226	0.356183889
2038.64355	0.356156034
2036.71485	0.356200528
2034.78614	0.356172714
2032.85743	0.356158833
2030.92873	0.35581207
2029.00002	0.355798421
2027.07131	0.355699272
2025.1426	0.355528652
2023.2139	0.355501814
2021.28519	0.355345279
2019.35648	0.355461678
2017.42778	0.355305466
2015.49907	0.355350331
2013.57036	0.355395106
2011.64165	0.355239431
2009.71295	0.355084067
2007.78424	0.354929014
2005.85553	0.354774271
2003.92682	0.354619836
2001.99812	0.354735793
2000.06941	0.354581673
1998.1407	0.354626866
1996.212	0.354543647
1994.28329	0.35446056
1992.35458	0.354249404
1990.42587	0.354294783
1988.49717	0.354071726
1986.56846	0.354117181
1984.63975	0.35403481
1982.71104	0.353952569
1980.78234	0.353800592
1978.85363	0.35391596
1976.92492	0.353764289
1974.99622	0.353682552
1973.06751	0.353531379
1971.1388	0.353449971
1969.21009	0.35336869
1967.28139	0.353287537
1965.35268	0.353137255
1963.42397	0.352998824
1961.49527	0.352952717
1959.56656	0.352848723
1957.63785	0.352952717
1955.70914	0.352952679
1953.78044	0.35297561
1951.85173	0.352757747
1949.92302	0.352609034
1947.99431	0.352460611
1946.06561	0.352506801
1944.1369	0.352301418
1942.20819	0.352222007
1940.27949	0.352131783
1938.35078	0.352041804
1936.42207	0.352088167
1934.49336	0.352134441
1932.56466	0.35198765
1930.63595	0.351648352
1928.70724	0.351570025
1926.77853	0.351491819
1924.84983	0.351481339
1922.92112	0.351403306
1920.99241	0.351392891
1919.06371	0.351190476
1917.135	0.351237291
1915.20629	0.351082168
1913.27758	0.350994644
1911.34888	0.350984515
1909.42017	0.350907354
1907.49146	0.350763359
1905.56276	0.350552802
1903.63405	0.350599886
1901.70534	0.350523311
1899.77663	0.350446853
1897.84793	0.350370511
1895.91922	0.350550703
1893.99051	0.350474383
1892.0618	0.35020857
1890.1331	0.350198977
1888.20439	0.350056797
1886.27568	0.349848714
1884.34698	0.349829996
1882.41827	0.349754624
1880.48956	0.349679366
1878.56085	0.349792688
1876.63215	0.349717514
1874.70344	0.349642454
1872.77473	0.349633252
1870.84602	0.349445176
1868.91732	0.349191425
1866.98861	0.349295775
1865.0599	0.349268841
1863.1312	0.34906367
1861.20249	0.349111319
1859.27378	0.349037203
1857.34507	0.34889802
1855.41637	0.348759097
1853.48766	0.348620433
1851.55895	0.348733234
1849.63025	0.348603352
1847.70154	0.348417132
1845.77283	0.348360656
1843.84412	0.348287416
1841.91542	0.348383501
1839.98671	0.348108309
1838.058	0.348091886
1836.12929	0.348019252
1834.20059	0.348011101
1832.27188	0.348011101
1830.34317	0.347826087
1828.41447	0.347689464
1826.48576	0.347737765
1824.55705	0.347721823
1822.62834	0.347641857
1820.69964	0.347626058
1818.77093	0.347370357
1816.84222	0.347362617
1814.91351	0.347171198
1812.98481	0.347107438
1811.0561	0.347043702
1809.12739	0.346972477
1807.19869	0.346837764
1805.26998	0.346710647
1803.34127	0.346590909
1801.41256	0.346654445
1799.48386	0.346590909
1797.55515	0.346583623
1795.62644	0.346463906
1793.69774	0.346351302
1791.76903	0.346414818
1789.84032	0.34640044
1787.91161	0.346329855
1785.98291	0.346210179
1784.0542	0.34609046
1782.12549	0.34609046
1780.19678	0.346027096
1778.26808	0.345844013
1776.33937	0.345787546
1774.41066	0.345681276
1772.48196	0.345631424
1770.55325	0.345567994
1768.62454	0.345554537
1766.69583	0.345604396
1764.76713	0.345477847
1762.83842	0.345484521
1760.90971	0.345491202
1758.981	0.345371219
1757.0523	0.345257751
1755.12359	0.345087236
1753.19488	0.345113197
1751.26618	0.345082118
1749.33747	0.345037886
1747.40876	0.345044379
1745.48005	0.344993522
1743.55135	0.3448851
1741.62264	0.344840386
1739.69393	0.344603381
1737.76523	0.344551878
1735.83652	0.344448584
1733.90781	0.344519016
1731.9791	0.344436174
1730.0504	0.34440527
1728.12169	0.344259259
1726.19298	0.34424108
1724.26427	0.344165436
1722.33557	0.343969015
1720.40686	0.343784581
1718.47815	0.343847999
1716.54945	0.343588799
1714.62074	0.343434343
1712.69203	0.34328085
1710.76332	0.343259043
1708.83462	0.34318555
1706.90591	0.343117593
1704.9772	0.343169399
1703.04849	0.343106902
1701.11979	0.343231918
1699.19108	0.343096234
1697.26237	0.342950463
1695.33367	0.342986425
1693.40496	0.342898394
1691.47625	0.342759366
1689.54754	0.342754275
1687.61884	0.342697641
1685.69013	0.342589254
1683.76142	0.342408943
1681.83272	0.342152628
1679.90401	0.342015448
1677.9753	0.341954023
1676.04659	0.341897233
1674.11789	0.342015448
1672.18918	0.34189262
1670.26047	0.341774425
1668.33176	0.341765339
1666.40306	0.341572631
1664.47435	0.341511461
1662.54564	0.341511461
1660.61694	0.341267001
1658.68823	0.341323792
1656.75952	0.341157499
1654.83081	0.341064365
1652.90211	0.341072714
1650.9734	0.341117298
1649.04469	0.341047722
1647.11598	0.340750045
1645.18728	0.340681004
1643.25857	0.340608229
1641.32986	0.340543439
1639.40116	0.340368449
1637.47245	0.340200645
1635.54374	0.340143369
1633.61503	0.340132403
1631.68633	0.340060725
1629.75762	0.34
1627.82891	0.339942837
1625.90021	0.340064332
1623.9715	0.339946381
1622.04279	0.339824906
1620.11408	0.339703518
1618.18538	0.339646239
1616.25667	0.339585566
1614.32796	0.339696699
1612.39925	0.339511673
1610.47055	0.339511673
1608.54184	0.339333452
1606.61313	0.339212542
1604.68443	0.339269813
1602.75572	0.339327043
1600.82701	0.339384232
1598.8983	0.339203131
1596.9696	0.339082504
1595.04089	0.339079438
1593.11218	0.339016161
1591.18347	0.339010112
1589.25477	0.339004076
1587.32606	0.33888102
1585.39735	0.338935079
1583.46865	0.33863556
1581.53994	0.338572942
1579.61123	0.338513156
1577.68252	0.338456103
1575.75382	0.338393645
1573.82511	0.338385619
1571.8964	0.338087691
1569.96769	0.338087691
1568.03899	0.338023215
1566.11028	0.337899543
1564.18157	0.33807267
1562.25287	0.33790195
1560.32416	0.337914024
1558.39545	0.337856891
1556.46674	0.337669186
1554.53804	0.337714686
1552.60933	0.337532808
1550.68062	0.337412587
1548.75192	0.33735361
1546.82321	0.33729673
1544.8945	0.337302977
1542.96579	0.337192982
1541.03709	0.337019484
1539.10838	0.336954617
1537.17967	0.337002096
1535.25096	0.337113942
1533.32226	0.336937565
1531.39355	0.336933798
1529.46484	0.336699164
1527.53614	0.336700923
1525.60743	0.336761374
1523.67872	0.336649215
1521.75001	0.336536781
1519.82131	0.336360461
1517.8926	0.336357292
1515.96389	0.336412759
1514.03518	0.336236934
1512.10648	0.336179854
1510.17777	0.336067004
1508.24906	0.335837847
1506.32036	0.335952506
1504.39165	0.335828691
1502.46294	0.335823489
1500.53423	0.335766423
1498.60553	0.33559499
1496.67682	0.335653384
1494.74811	0.335535466
1492.81941	0.335535466
1490.8907	0.335596171
1488.96199	0.335364792
1487.03328	0.335362672
1485.10458	0.335302293
1483.17587	0.335185828
1481.24716	0.335070349
1479.31845	0.335013908
1477.38975	0.335016542
1475.46104	0.335078534
1473.53233	0.335023606
1471.60363	0.335024493
1469.67492	0.334790974
1467.74621	0.334675302
1465.8175	0.334560112
1463.8888	0.334502104
1461.96009	0.334560757
1460.03138	0.334504568
1458.10267	0.33444875
1456.17397	0.334389857
1454.24526	0.334270156
1452.31655	0.334326788
1450.38785	0.334209604
1448.45914	0.334151043
1446.53043	0.334092103
1444.60172	0.334149755
1442.67302	0.333916084
1440.74431	0.333857992
1438.8156	0.33380035
1436.8869	0.333684026
1434.95819	0.333625372
1433.02948	0.333625066
1431.10077	0.333450026
1429.17207	0.333450026
1427.24336	0.333450026
1425.31465	0.333450088
1423.38594	0.333274895
1421.45724	0.333333333
1419.52853	0.333216045
1417.59982	0.333098715
1415.67112	0.332864428
1413.74241	0.332922969
1411.8137	0.332981345
1409.88499	0.333098468
1407.95629	0.333039492
1406.02758	0.332803953
1404.09887	0.332685856
1402.17016	0.332744301
1400.24146	0.332861691
1398.31275	0.332684481
1396.38404	0.332507521
1394.45534	0.33244916
1392.52663	0.332391381
1390.59792	0.33239188
1388.66921	0.332391381
1386.74051	0.332096803
1384.8118	0.332097458
1382.88309	0.332098112
1380.95439	0.331980949
1379.02568	0.332098765
1377.09697	0.331980949
1375.16826	0.332098112
1373.23956	0.33203952
1371.31085	0.331922399
1369.38214	0.33180536
1367.45343	0.331746871
1365.52473	0.331629055
1363.59602	0.331511197
1361.66731	0.331335918
1359.73861	0.331396373
1357.8099	0.331398417
1355.88119	0.331399437
1353.95248	0.331458699
1352.02378	0.331284033
1350.09507	0.331226962
1348.16636	0.331052632
1346.23765	0.330878485
1344.30895	0.330704522
1342.38024	0.330646574
1340.45153	0.330646574
1338.52283	0.330705903
1336.59412	0.33059153
1334.66541	0.33041958
1332.7367	0.330305677
1330.808	0.330307263
1328.87929	0.330134357
1326.95058	0.330193616
1325.02188	0.330193616
1323.09317	0.330019187
1321.16446	0.329902303
1319.23575	0.329842932
1317.30705	0.329725956
1315.37834	0.329666492
1313.44963	0.329606987
1311.52092	0.329489867
1309.59222	0.329372707
1307.66351	0.329255505
1305.7348	0.329253366
1303.8061	0.329251225
1301.87739	0.329074042
1299.94868	0.328954283
1298.01997	0.329009641
1296.09127	0.328889668
1294.16256	0.328769528
1292.23385	0.328531272
1290.30514	0.328526205
1288.37644	0.328287273
1286.44773	0.328281938
1284.51902	0.328276592
1282.59032	0.328329212
1280.66161	0.328263177
1278.7329	0.32837407
1276.80419	0.328246984
1274.87549	0.328177778
1272.94678	0.328047042
1271.01807	0.327792672
1269.08937	0.327830612
1267.16066	0.327744727
1265.23195	0.327717391
1263.30324	0.327695945
1261.37454	0.32744491
1259.44583	0.327388535
1257.51712	0.327160494
1255.58841	0.327055415
1253.65971	0.327006508
1251.731	0.326950867
1249.80229	0.326950867
1247.87359	0.326825741
1245.94488	0.326637713
1244.01617	0.326508425
1242.08746	0.32637881
1240.15876	0.326189611
1238.23005	0.326118589
1236.30134	0.325865209
1234.37263	0.325852947
1232.44393	0.325598392
1230.51522	0.325585652
1228.58651	0.325389551
1226.65781	0.325376423
1224.7291	0.325179327
1222.80039	0.324981577
1220.87168	0.325027685
1218.94298	0.324889053
1217.01427	0.324689757
1215.08556	0.324424647
1213.15686	0.32428412
1211.22815	0.324263884
1209.29944	0.323996265
1207.37073	0.323788134
1205.44203	0.323579066
1203.51332	0.323369054
1201.58461	0.323346523
1199.6559	0.323135033
1197.7272	0.322922582
1195.79849	0.322898881
1193.86978	0.322684921
1191.94108	0.322469983
1190.01237	0.322192513
1188.08366	0.322037143
1186.15495	0.321942791
1184.22625	0.321524836
1182.29754	0.321421673
1180.36883	0.321193336
1178.44012	0.321234472
1176.51142	0.321018861
1174.58271	0.320802493
1172.654	0.320515323
1170.7253	0.320289572
1168.79659	0.319866641
1166.86788	0.31970114
1164.93917	0.31933767
1163.01047	0.318909306
1161.08176	0.318938193
1159.15305	0.318705322
1157.22435	0.31853474
1155.29564	0.318227191
1153.36693	0.317981578
1151.43822	0.317533641
1149.50952	0.317348378
1147.58081	0.317226041
1145.6521	0.31689998
1143.72339	0.316507226
1141.79469	0.316316112
1139.86598	0.315929566
1137.93727	0.315465188
1136.00857	0.31499794
1134.07986	0.314657846
1132.15115	0.314107884
1130.22244	0.313619325
1128.29374	0.313258051
1126.36503	0.312893742
1124.43632	0.312236287
1122.50761	0.311784655
1120.57891	0.311395101
1118.6502	0.310854207
1116.72149	0.310522918
1114.79279	0.310038944
1112.86408	0.309549706
1110.93537	0.308971554
1109.00666	0.308386529
1107.07796	0.307930882
1105.14925	0.307555159
1103.22054	0.307174888
1101.29184	0.307102593
1099.36313	0.30636755
1097.43442	0.305802048
1095.50571	0.305251142
1093.57701	0.305014884
1091.6483	0.304547542
1089.71959	0.304077402
1087.79088	0.303674601
1085.86218	0.30324826
1083.93347	0.302656104
1082.00476	0.302363679
1080.07606	0.30199765
1078.14735	0.301557338
1076.21864	0.301279015
1074.28993	0.300617871
1072.36123	0.300214439
1070.43252	0.299737282
1068.50381	0.299497247
1066.5751	0.299087854
1064.6464	0.29843562
1062.71769	0.298093169
1060.78898	0.297434656
1058.86028	0.29687121
1056.93157	0.296260321
1055.00286	0.295576082
1053.07415	0.294990272
1051.14545	0.294403893
1049.21674	0.293888483
1047.28803	0.29337232
1045.35933	0.292855401
1043.43062	0.292337726
1041.50191	0.291819292
1039.5732	0.291371303
1037.6445	0.290606654
1035.71579	0.290156709
1033.78708	0.289389855
1031.85837	0.288867092
1029.92967	0.288343558
1028.00096	0.287677958
1026.07225	0.287116564
1024.14355	0.286414909
1022.21484	0.285399314
1020.28613	0.284630445
1018.35742	0.283863081
1016.42872	0.283028083
1014.50001	0.282126311
1012.5713	0.281402142
1010.64259	0.280369291
1008.71389	0.279515152
1006.78518	0.278490201
1004.85647	0.277912035
1002.92777	0.276919363
1000.99906	0.276061776
999.07035	0.275271411
997.14164	0.274306393
995.21294	0.273166023
993.28423	0.272156484
991.35552	0.271211022
989.42682	0.270087125
987.49811	0.269090909
985.5694	0.26797862
983.64069	0.266991474
981.71199	0.266129032
979.78328	0.265145941
977.85457	0.264350825
975.92586	0.263301163
973.99716	0.262490679
972.06845	0.261542301
970.13974	0.260390586
968.21104	0.259668508
966.28233	0.258559919
964.35362	0.257445734
962.42491	0.256325911
960.49621	0.255518904
958.5675	0.254452926
956.63879	0.253255042
954.71008	0.252369972
952.78138	0.251093388
950.85267	0.249870801
948.92396	0.248506881
946.99526	0.247323061
945.06655	0.246319664
943.13784	0.245168123
941.20913	0.244130203
939.28043	0.243206887
937.35172	0.242128122
935.42301	0.240887914
933.49431	0.239623686
931.5656	0.23833473
929.63689	0.237101776
927.70818	0.236063709
925.77948	0.235159163
923.85077	0.234171726
921.92206	0.232876712
919.99335	0.231628454
918.06465	0.230723606
916.13594	0.229503291
914.20723	0.228398792
912.27853	0.227342081
910.34982	0.226095003
908.42111	0.224960998
906.4924	0.223941883
904.5637	0.222897346
902.63499	0.221682848
900.70628	0.220621931
898.77757	0.21957672
896.84887	0.21869783
894.92016	0.217464599
892.99145	0.21669506
891.06275	0.215564738
889.13404	0.214758093
887.20533	0.213657163
885.27662	0.212455516
883.34792	0.211586902
881.41921	0.211139425
879.4905	0.210158263
877.5618	0.209449405
875.63309	0.208489857
873.70438	0.207733131
871.77567	0.207107375
869.84697	0.206391991
867.91826	0.205585725
865.98955	0.204767487
864.06084	0.204330709
862.13214	0.203887346
860.20343	0.202956452
858.27472	0.202012072
856.34602	0.20178282
854.41731	0.201142391
852.4886	0.201314708
850.55989	0.200909467
848.63119	0.2004158
846.70248	0.199832776
844.77377	0.199327166
842.84506	0.199070161
840.91636	0.199235344
838.98765	0.199487399
837.05894	0.199227136
835.13024	0.198964178
833.20153	0.198612316
831.27282	0.198606272
829.34411	0.198513336
827.41541	0.199033392
825.4867	0.199116998
823.55799	0.199289836
821.62929	0.199821588
819.70058	0.200268817
817.77187	0.20062978
815.84316	0.201536376
813.91446	0.201997276
811.98575	0.203010949
810.05704	0.203576341
808.12833	0.204147465
806.19963	0.20462963
804.27092	0.205855019
802.34221	0.206993007
800.41351	0.208313872
798.4848	0.209443665
796.55609	0.211313698
794.62738	0.212616822
792.69868	0.214285714
790.76997	0.215951493
788.84126	0.217512809
786.91255	0.219739292
784.98385	0.221395349
783.05514	0.223616922
781.12643	0.225941423
779.19773	0.228159851
777.26902	0.230269266
775.34031	0.232482599
773.4116	0.234939759
771.4829	0.237742831
769.55419	0.239722864
767.62548	0.242158672
765.69678	0.24516129
763.76807	0.248158379
761.83936	0.250689972
759.91065	0.253449862
757.98195	0.25574977
756.05324	0.258168431
754.12453	0.260709351
752.19582	0.263036456
750.26712	0.264787431
748.33841	0.266666667
746.4097	0.269141531
744.481	0.271754304
742.55229	0.273915072
740.62358	0.275620028
738.69487	0.277334585
736.76617	0.279190207
734.83746	0.280585735
732.90875	0.281650071
730.98004	0.283198477
729.05134	0.28475872
727.12263	0.285988484
725.19392	0.28750603
723.26522	0.28841493
721.33651	0.289332684
719.4078	0.290401567
717.47909	0.291482029
715.55039	0.292574257
713.62168	0.293678447
711.69297	0.294942414
709.76427	0.295362903
707.83556	0.296296296
705.90685	0.296731359
703.97814	0.297172237
702.04944	0.297619048
700.12073	0.297395833
698.19202	0.297850026
696.26331	0.297939778
694.33461	0.298563065
692.4059	0.298659517
690.47719	0.299459459
688.54849	0.299182561
686.61978	0.299065421
684.69107	0.299278179
682.76236	0.299887892
680.83366	0.299773756
678.90495	0.299657534
676.97624	0.299539171
675.04753	0.30017452
673.11883	0.300235018
671.19012	0.300296736
669.26141	0.299760192
667.33271	0.300423985
665.404	0.30030581
663.47529	0.300988875
661.54658	0.301061836
659.61788	0.300946372
657.68917	0.301020408
655.76046	0.301096067
653.83176	0.300325733
651.90305	0.300855826
649.97434	0.300932091
648.04563	0.301010101
646.11693	0.301565691
644.18822	0.301510989
642.25951	0.301455301
640.3308	0.300699301
638.4021	0.300141243
636.47339	0.300499643
634.54468	0.300648882
632.61598	0.301239971
630.68727	0.301107011
628.75856	0.302169035
626.82985	0.301743745
624.90115	0.301075269
622.97244	0.300389105
621.04373	0.299448385
619.11502	0.299281724
617.18632	0.299919159
615.25761	0.299264105
613.3289	0.298679868
611.4002	0.298420615
609.47149	0.298994975
607.54278	0.299831081
605.61407	0.299829642
603.68537	0.300429185
601.75666	0.301559792
