4999.20917	0.345794393
4997.28046	0.344186047
4995.35176	0.345707657
4993.42305	0.344907407
4991.49434	0.344110855
4989.56564	0.34562212
4987.63693	0.344827586
4985.70822	0.344036697
4983.77951	0.343249428
4981.85081	0.344748858
4979.9221	0.346241458
4977.99339	0.345454545
4976.06468	0.344671202
4974.13598	0.344671202
4972.20727	0.343891403
4970.27856	0.344594595
4968.34986	0.343820225
4966.42115	0.34529148
4964.49244	0.344519016
4962.56373	0.34375
4960.63503	0.345211581
4958.70632	0.344444444
4956.77761	0.34368071
4954.8489	0.342920354
4952.9202	0.344370861
4950.99149	0.343612335
4949.06278	0.342857143
4947.13408	0.344298246
4945.20537	0.343544858
4943.27666	0.34279476
4941.34795	0.34422658
4939.41925	0.343478261
4937.49054	0.342733189
4935.56183	0.344155844
4933.63313	0.343412527
4931.70442	0.344827586
4929.77571	0.344086022
4927.847	0.343347639
4925.9183	0.344753747
4923.98959	0.343283582
4922.06088	0.342553191
4920.13217	0.344680851
4918.20347	0.343220339
4916.27476	0.342494715
4914.34605	0.343881857
4912.41735	0.343157895
4910.48864	0.342436975
4908.55993	0.343815514
4906.63122	0.343096234
4904.70252	0.341666667
4902.77381	0.343035343
4900.8451	0.342323651
4898.91639	0.341614907
4896.98769	0.3436853
4895.05898	0.342975207
4893.13027	0.342268041
4891.20157	0.342915811
4889.27286	0.342213115
4887.34415	0.341513292
4885.41544	0.340816327
4883.48674	0.342158859
4881.55803	0.341463415
4879.62932	0.340770791
4877.70062	0.342105263
4875.77191	0.343434343
4873.8432	0.342741935
4871.91449	0.341365462
4869.98579	0.342685371
4868.05708	0.342
4866.12837	0.34063745
4864.19966	0.34194831
4862.27096	0.341269841
4860.34225	0.340594059
4858.41354	0.341897233
4856.48484	0.340551181
4854.55613	0.340551181
4852.62742	0.341846758
4850.69871	0.340508806
4848.77001	0.341796875
4846.8413	0.341130604
4844.91259	0.340466926
4842.98388	0.341747573
4841.05518	0.341085271
4839.12647	0.33976834
4837.19776	0.341040462
4835.26906	0.340384615
4833.34035	0.339731286
4831.41164	0.33908046
4829.48293	0.340344168
4827.55423	0.339047619
4825.62552	0.340304183
4823.69681	0.339658444
4821.76811	0.340909091
4819.8394	0.34026465
4817.91069	0.341509434
4815.98198	0.34086629
4814.05328	0.339587242
4812.12457	0.338951311
4810.19586	0.340186916
4808.26715	0.338919926
4806.33845	0.340148699
4804.40974	0.339517625
4802.48103	0.340740741
4800.55233	0.340110906
4798.62362	0.339483395
4796.69491	0.340073529
4794.7662	0.339449541
4792.8375	0.340659341
4790.90879	0.340036563
4788.98008	0.339416058
4787.05137	0.34
4785.12267	0.33938294
4783.19396	0.338768116
4781.26525	0.339963834
4779.33655	0.338738739
4777.40784	0.338129496
4775.47913	0.339317774
4773.55042	0.339892665
4771.62172	0.339285714
4769.69301	0.338680927
4767.7643	0.338078292
4765.8356	0.338652482
4763.90689	0.339823009
4761.97818	0.339222615
4760.04947	0.338624339
4758.12077	0.337434095
4756.19206	0.338596491
4754.26335	0.339754816
4752.33464	0.338568935
4750.40594	0.337979094
4748.47723	0.339130435
4746.54852	0.337954939
4744.61982	0.337370242
4742.69111	0.33851468
4740.7624	0.337931034
4738.83369	0.336769759
4736.90499	0.337328767
4734.97628	0.336752137
4733.04757	0.337883959
4731.11886	0.337308348
4729.19016	0.337860781
4727.26145	0.337288136
4725.33274	0.336717428
4723.40404	0.336148649
4721.47533	0.337268128
4719.54662	0.337815126
4717.61791	0.337248322
4715.68921	0.338358459
4713.7605	0.337792642
4711.83179	0.338333333
4709.90308	0.337770383
4707.97438	0.336650083
4706.04567	0.336092715
4704.11696	0.336633663
4702.18826	0.337726524
4700.25955	0.337171053
4698.33084	0.336617406
4696.40213	0.337152209
4694.47343	0.336052202
4692.54472	0.33713355
4690.61601	0.336585366
4688.68731	0.335494327
4686.7586	0.336569579
4684.82989	0.336025848
4682.90118	0.334943639
4680.97248	0.336012862
4679.04377	0.336538462
4677.11506	0.336
4675.18635	0.337060703
4673.25765	0.337579618
4671.32894	0.337042925
4669.40023	0.335974643
4667.47153	0.335443038
4665.54282	0.336492891
4663.61411	0.335962145
4661.6854	0.336477987
4659.7567	0.335423197
4657.82799	0.334898279
4655.89928	0.3359375
4653.97057	0.335413417
4652.04187	0.33592535
4650.11316	0.334883721
4648.18445	0.335913313
4646.25575	0.335394127
4644.32704	0.334360555
4642.39833	0.333846154
4640.46962	0.334355828
4638.54092	0.335375191
4636.61221	0.334351145
4634.6835	0.333841463
4632.7548	0.334855403
4630.82609	0.335356601
4628.89738	0.334848485
4626.96867	0.335854766
4625.03997	0.336349925
4623.11126	0.335843373
4621.18255	0.334834835
4619.25384	0.333832335
4617.32514	0.333333333
4615.39643	0.333830104
4613.46772	0.333333333
4611.53902	0.333827893
4609.61031	0.334814815
4607.6816	0.335302806
4605.75289	0.334315169
4603.82419	0.335294118
4601.89548	0.334801762
4599.96677	0.333821376
4598.03806	0.333333333
4596.10936	0.334306569
4594.18065	0.334788937
4592.25194	0.334302326
4590.32324	0.334782609
4588.39453	0.333815029
4586.46582	0.333333333
4584.53711	0.33381295
4582.60841	0.333333333
4580.6797	0.333810888
4578.75099	0.333333333
4576.82229	0.334285714
4574.89358	0.333333333
4572.96487	0.333806818
4571.03616	0.333333333
4569.10746	0.333804809
4567.17875	0.333333333
4565.25004	0.333802817
4563.32133	0.333333333
4561.39263	0.333800842
4559.46392	0.332867133
4557.53521	0.332402235
4555.60651	0.332869081
4553.6778	0.33240612
4551.74909	0.333333333
4549.82038	0.332409972
4547.89168	0.332872928
4545.96297	0.332413793
4544.03426	0.332874828
4542.10555	0.332417582
4540.17685	0.332876712
4538.24814	0.331967213
4536.31943	0.332878581
4534.39073	0.331972789
4532.46202	0.332880435
4530.53331	0.33197832
4528.6046	0.332432432
4526.6759	0.331983806
4524.74719	0.33243607
4522.81848	0.331989247
4520.88978	0.332439678
4518.96107	0.331550802
4517.03236	0.331108144
4515.10365	0.332
4513.17495	0.332446809
4511.24624	0.333333333
4509.31753	0.332450331
4507.38882	0.332892999
4505.46012	0.33201581
4503.53141	0.331143233
4501.6027	0.332020997
4499.674	0.332460733
4497.74529	0.332026144
4495.81658	0.332464146
4493.88787	0.33203125
4491.95917	0.332467532
4490.03046	0.331606218
4488.10175	0.330749354
4486.17304	0.331612903
4484.24434	0.332046332
4482.31563	0.331619537
4480.38692	0.332051282
4478.45822	0.33162612
4476.52951	0.332056194
4474.6008	0.331210191
4472.67209	0.331639136
4470.74339	0.331218274
4468.81468	0.33164557
4466.88597	0.330808081
4464.95727	0.330390921
4463.02856	0.33081761
4461.09985	0.329987453
4459.17114	0.330413016
4457.24244	0.33125
4455.31373	0.33042394
4453.38502	0.330845771
4451.45631	0.330434783
4449.52761	0.330855019
4447.5989	0.330037083
4445.67019	0.330864198
4443.74149	0.330049261
4441.81278	0.33046683
4439.88407	0.331288344
4437.95536	0.330477356
4436.02666	0.330891331
4434.09795	0.330487805
4432.16924	0.330900243
4430.24053	0.33131068
4428.31183	0.330508475
4426.38312	0.331318017
4424.45441	0.330518697
4422.52571	0.330926594
4420.597	0.330132053
4418.66829	0.329341317
4416.73958	0.330143541
4414.81088	0.330548926
4412.88217	0.329761905
4410.95346	0.330166271
4409.02476	0.329774614
4407.09605	0.328994083
4405.16734	0.329397875
4403.23863	0.329799764
4401.30993	0.330199765
4399.38122	0.329425557
4397.45251	0.329824561
4395.5238	0.329439252
4393.5951	0.32983683
4391.66639	0.329452852
4389.73768	0.329849013
4387.80898	0.330243337
4385.88027	0.329861111
4383.95156	0.329099307
4382.02285	0.329493088
4380.09415	0.328735632
4378.16544	0.32912844
4376.23673	0.329519451
4374.30802	0.329908676
4372.37932	0.329532497
4370.45061	0.329920364
4368.5219	0.329171396
4366.5932	0.328425821
4364.66449	0.328813559
4362.73578	0.329199549
4360.80707	0.328458943
4358.87837	0.328843996
4356.94966	0.329227324
4355.02095	0.32849162
4353.09225	0.328125
4351.16354	0.328507795
4349.23483	0.327777778
4347.30612	0.328159645
4345.37742	0.327433628
4343.44871	0.32781457
4341.52	0.328193833
4339.59129	0.328932893
4337.66259	0.328210757
4335.73388	0.328587076
4333.80517	0.327868852
4331.87647	0.328244275
4329.94776	0.328618063
4328.01905	0.32826087
4326.09034	0.328633406
4324.16164	0.329004329
4322.23293	0.32793959
4320.30422	0.328663793
4318.37551	0.327956989
4316.44681	0.327253219
4314.5181	0.327623126
4312.58939	0.327991453
4310.66069	0.327292111
4308.73198	0.327659574
4306.80327	0.32837407
4304.87456	0.32873807
4302.94586	0.328042328
4301.01715	0.328405491
4299.08844	0.327713383
4297.15974	0.32807571
4295.23103	0.327387198
4293.30232	0.327748691
4291.37361	0.327063741
4289.44491	0.3274244
4287.5162	0.326742976
4285.58749	0.327102804
4283.65878	0.32746114
4281.73008	0.326783868
4279.80137	0.327141383
4277.87266	0.327497425
4275.94396	0.326824255
4274.01525	0.327179487
4272.08654	0.326509724
4270.15783	0.326864147
4268.22913	0.327217125
4266.30042	0.327568667
4264.37171	0.327235772
4262.443	0.326572008
4260.5143	0.326923077
4258.58559	0.327272727
4256.65688	0.326612903
4254.72818	0.326961771
4252.79947	0.327309237
4250.87076	0.326653307
4248.94205	0.326673327
4247.01335	0.326021934
4245.08464	0.326368159
4243.15593	0.326713009
4241.22723	0.327056492
4239.29852	0.326409496
4237.36981	0.326752221
4235.4411	0.326108374
4233.5124	0.326450344
4231.58369	0.325809617
4229.65498	0.326150833
4227.72627	0.326490714
4225.79757	0.325853659
4223.86886	0.326192795
4221.94015	0.326530612
4220.01145	0.325897187
4218.08274	0.326234269
4216.15403	0.326570048
4214.22532	0.326904532
4212.29662	0.325961538
4210.36791	0.326295585
4208.4392	0.326628352
4206.51049	0.326003824
4204.58179	0.326335878
4202.65308	0.326666667
4200.72437	0.326045627
4198.79567	0.326375712
4196.86696	0.326704545
4194.93825	0.325779037
4193.00954	0.326107446
4191.08084	0.325493885
4189.15213	0.325821596
4187.22342	0.326148079
4185.29472	0.325537886
4183.36601	0.325863679
4181.4373	0.325256291
4179.50859	0.325581395
4177.57989	0.325602968
4175.65118	0.325925926
4173.72247	0.326247689
4171.79376	0.326568266
4169.86506	0.325666973
4167.93635	0.325987144
4166.00764	0.325688073
4164.07894	0.326007326
4162.15023	0.325114155
4160.22152	0.325432999
4158.29281	0.325750682
4156.36411	0.326067212
4154.4354	0.325475975
4152.50669	0.325497288
4150.57798	0.324909747
4148.64928	0.325225225
4146.72057	0.325539568
4144.79186	0.324663677
4142.86316	0.324977619
4140.93445	0.325290438
4139.00574	0.325602141
4137.07703	0.325022262
4135.14833	0.325333333
4133.21962	0.32535461
4131.29091	0.324778761
4129.36221	0.325088339
4127.4335	0.325110132
4125.50479	0.324538259
4123.57608	0.324846356
4121.64738	0.325153374
4119.71867	0.325459318
4117.78996	0.32489083
4115.86125	0.324912892
4113.93255	0.325217391
4112.00384	0.324652778
4110.07513	0.324956672
4108.14643	0.325259516
4106.21772	0.324417601
4104.28901	0.32444062
4102.3603	0.324742268
4100.4316	0.325042882
4098.50289	0.324486301
4096.57418	0.324786325
4094.64547	0.325085324
4092.71677	0.324531516
4090.78806	0.324553951
4088.85935	0.324851569
4086.93065	0.324873096
4085.00194	0.325168919
4083.07323	0.324620573
4081.14452	0.324642557
4079.21582	0.324097397
4077.28711	0.324120603
4075.3584	0.324414716
4073.4297	0.323873122
4071.50099	0.323896753
4069.57228	0.324189526
4067.64357	0.323651452
4065.71487	0.323943662
4063.78616	0.324234905
4061.85745	0.324525186
4059.92874	0.324546952
4058.00004	0.324013158
4056.07133	0.324036095
4054.14262	0.324324324
4052.21392	0.324346405
4050.28521	0.323817292
4048.3565	0.324104235
4046.42779	0.324126726
4044.49909	0.323600973
4042.57038	0.323624595
4040.64167	0.323909532
4038.71296	0.323387097
4036.78426	0.323411102
4034.85555	0.323694779
4032.92684	0.323977546
4030.99814	0.324
4029.06943	0.32428115
4027.14072	0.323763955
4025.21201	0.323786794
4023.28331	0.32406672
4021.3546	0.324345757
4019.42589	0.323575949
4017.49719	0.32385466
4015.56848	0.323877069
4013.63977	0.323899371
4011.71106	0.324175824
4009.78236	0.323414252
4007.85365	0.323690383
4005.92494	0.323712949
4003.99623	0.323208723
4002.06753	0.32348367
4000.13882	0.323506594
3998.21011	0.323780015
3996.28141	0.324052591
3994.3527	0.323552124
3992.42399	0.32357473
3990.49528	0.323597233
3988.56658	0.323867997
3986.63787	0.323124043
3984.70916	0.323394495
3982.78045	0.323417239
3980.85175	0.323686215
3978.92304	0.323954373
3976.99433	0.323216995
3975.06563	0.323484848
3973.13692	0.323507181
3971.20821	0.323529412
3969.2795	0.323042169
3967.3508	0.323065364
3965.42209	0.323330833
3963.49338	0.323595506
3961.56468	0.323617339
3959.63597	0.323639075
3957.70726	0.323157111
3955.77855	0.323179792
3953.84985	0.323442136
3951.92114	0.323703704
3949.99243	0.323725055
3948.06372	0.32398524
3946.13502	0.323269514
3944.20631	0.322794118
3942.2776	0.322817315
3940.3489	0.32284041
3938.42019	0.322863404
3936.49148	0.323121809
3934.56277	0.323379461
3932.63407	0.322909091
3930.70536	0.322931785
3928.77665	0.322954381
3926.84794	0.322976879
3924.91924	0.322278298
3922.99053	0.32325414
3921.06182	0.32278936
3919.13312	0.32304379
3917.20441	0.323297491
3915.2757	0.32308792
3913.34699	0.323109843
3911.41829	0.323131673
3909.48958	0.323153409
3907.56087	0.32292406
3905.63217	0.322695035
3903.70346	0.322466336
3901.77475	0.322489392
3899.84604	0.32251235
3897.91734	0.32278481
3895.98863	0.322807018
3894.05992	0.323055361
3892.13121	0.322603219
3890.20251	0.322625698
3888.2738	0.322873082
3886.34509	0.322423398
3884.41639	0.322446143
3882.48768	0.322468793
3880.55897	0.322491349
3878.63026	0.322291235
3876.70156	0.32231405
3874.77285	0.322558459
3872.84414	0.32233677
3870.91543	0.322802198
3868.98673	0.32260274
3867.05802	0.322624744
3865.12931	0.322646658
3863.20061	0.322668482
3861.2719	0.322471147
3859.34319	0.322493225
3857.41448	0.321815718
3855.48578	0.321113374
3853.55707	0.320895522
3851.62836	0.322079676
3849.69966	0.322364003
3847.77095	0.32283992
3845.84224	0.322860963
3843.91353	0.322429907
3841.98483	0.32221481
3840.05612	0.322
3838.12741	0.322237017
3836.1987	0.322045153
3834.27	0.321854305
3832.34129	0.322324967
3830.41258	0.322346737
3828.48388	0.322156476
3826.55517	0.32239002
3824.62646	0.321967213
3822.69775	0.321756225
3820.76905	0.321989529
3818.84034	0.322664925
3816.91163	0.322685789
3814.98292	0.323146944
3813.05422	0.323186528
3811.12551	0.323206206
3809.1968	0.322997416
3807.2681	0.322580645
3805.33939	0.322809278
3803.41068	0.322393822
3801.48197	0.322622108
3799.55327	0.323076923
3797.62456	0.322683706
3795.69585	0.322498407
3793.76715	0.32231405
3791.83844	0.322969543
3789.90973	0.322989234
3787.98102	0.32300885
3786.05232	0.32260101
3784.12361	0.322621298
3782.1949	0.322844556
3780.26619	0.322864322
3778.33749	0.322884013
3776.40878	0.322701689
3774.48007	0.322721598
3772.55137	0.322319202
3770.62266	0.322540473
3768.69395	0.322761194
3766.76524	0.322580645
3764.83654	0.322600619
3762.90783	0.322620519
3760.97912	0.322839506
3759.05041	0.322858903
3757.12171	0.322878229
3755.193	0.322679779
3753.26429	0.322263223
3751.33559	0.322065151
3749.40688	0.32208589
3747.47817	0.322303922
3745.54946	0.322106552
3743.62076	0.321537523
3741.69205	0.321797207
3739.76334	0.322228952
3737.83464	0.321623259
3735.90593	0.322033898
3733.97722	0.321859903
3732.04851	0.322503008
3730.11981	0.322735453
3728.1911	0.322754491
3726.26239	0.322966507
3724.33368	0.322985075
3722.40498	0.322811197
3720.47627	0.322829964
3718.54756	0.323250297
3716.61886	0.32267614
3714.69015	0.322485207
3712.76144	0.3222945
3710.83273	0.32231405
3708.90403	0.322542672
3706.97532	0.322769953
3705.04661	0.322788518
3703.1179	0.322995904
3701.1892	0.322429907
3699.26049	0.322843823
3697.33178	0.322862129
3695.40308	0.322880372
3693.47437	0.322692977
3691.54566	0.322112594
3689.61695	0.3225058
3687.68825	0.322729902
3685.75954	0.322766571
3683.83083	0.323174238
3681.90213	0.322802987
3679.97342	0.322617681
3678.04471	0.322617681
3676.116	0.322043628
3674.1873	0.322451317
3672.25859	0.322469983
3670.32988	0.323059361
3668.40117	0.322525597
3666.47247	0.323312535
3664.54376	0.323146576
3662.61505	0.323163842
3660.68635	0.323363431
3658.75764	0.323181049
3656.82893	0.322998873
3654.90022	0.32301632
3652.97152	0.322834646
3651.04281	0.322453573
3649.1141	0.322272216
3647.18539	0.322490185
3645.25669	0.322905028
3643.32798	0.323299889
3641.39927	0.323316639
3639.47057	0.323333333
3637.54186	0.322974473
3635.61315	0.323170732
3633.68444	0.32299169
3631.75574	0.323170732
3629.82703	0.322616408
3627.89832	0.322455752
3625.96961	0.322491731
3624.04091	0.322882288
3622.1122	0.322882288
3620.18349	0.322882288
3618.25479	0.322350357
3616.32608	0.322545255
3614.39737	0.322562979
3612.46866	0.322386426
3610.53996	0.322580645
3608.61125	0.322598253
3606.68254	0.322984749
3604.75384	0.322826087
3602.82513	0.32284319
3600.89642	0.323210412
3598.96771	0.322860238
3597.03901	0.322877231
3595.1103	0.323068612
3593.18159	0.323085221
3591.25288	0.322737069
3589.32418	0.322737069
3587.39547	0.322927879
3585.46676	0.322771214
3583.53806	0.323151125
3581.60935	0.323167469
3579.68064	0.323183761
3577.75193	0.322838847
3575.82323	0.323027719
3573.89452	0.323044172
3571.96581	0.32287234
3570.0371	0.32287234
3568.1084	0.322700691
3566.17969	0.322717622
3564.25098	0.32309322
3562.32228	0.323109466
3560.39357	0.32312566
3558.46486	0.323312236
3556.53615	0.323498419
3554.60745	0.323157895
3552.67874	0.323343849
3550.75003	0.323004202
3548.82133	0.323189927
3546.89262	0.322851153
3544.96391	0.322867609
3543.0352	0.323052797
3541.1065	0.323590814
3539.17779	0.323774765
3537.24908	0.3234375
3535.32037	0.323621228
3533.39167	0.323116883
3531.46296	0.323300467
3529.53425	0.32348367
3527.60555	0.323834197
3525.67684	0.324016563
3523.74813	0.323681489
3521.81942	0.323863636
3519.89072	0.323878288
3517.96201	0.323892894
3516.0333	0.323559671
3514.10459	0.323741007
3512.17589	0.323408624
3510.24718	0.323423885
3508.31847	0.323604711
3506.38977	0.323619632
3504.46106	0.32328907
3502.53235	0.323469388
3500.60364	0.323993887
3498.67494	0.324173028
3496.74623	0.323678862
3494.81752	0.323857868
3492.88882	0.324036511
3490.96011	0.324214792
3489.0314	0.324392713
3487.10269	0.324406266
3485.17399	0.324078748
3483.24528	0.32358871
3481.31657	0.323766365
3479.38786	0.32428356
3477.45916	0.324297189
3475.53045	0.323971916
3473.60174	0.323985979
3471.67304	0.324
3469.74433	0.324175824
3467.81562	0.324189526
3465.88691	0.324203187
3463.95821	0.324714073
3462.0295	0.324230387
3460.10079	0.324404762
3458.17208	0.324418029
3456.24338	0.324431256
3454.31467	0.324604743
3452.38596	0.324617662
3450.45726	0.324297684
3448.52855	0.324311024
3446.59984	0.324324324
3444.67113	0.324337586
3442.74243	0.324350808
3440.81372	0.324363992
3438.88501	0.324377137
3436.95631	0.324878049
3435.0276	0.324890404
3433.09889	0.324416342
3431.17018	0.324757282
3429.24148	0.324612403
3427.31277	0.32462506
3425.38406	0.324480927
3423.45535	0.324493732
3421.52665	0.3245065
3419.59794	0.325
3417.66923	0.324856046
3415.74053	0.325347389
3413.81182	0.325203252
3411.88311	0.3252149
3409.9544	0.325381679
3408.0257	0.325393044
3406.09699	0.325404377
3404.16828	0.324940618
3402.23957	0.325426945
3400.31087	0.325284091
3398.38216	0.325141777
3396.45345	0.325471698
3394.52475	0.325329567
3392.59604	0.32518797
3390.66733	0.325046904
3388.73862	0.325374532
3386.80992	0.325385694
3384.88121	0.325244984
3382.9525	0.325256291
3381.0238	0.325581395
3379.09509	0.325592197
3377.16638	0.325915624
3375.23767	0.325925926
3373.30897	0.325785582
3371.38026	0.325796031
3369.45155	0.32565638
3367.52284	0.326126955
3365.59414	0.326136886
3363.66543	0.325997249
3361.73672	0.326315789
3359.80802	0.326325411
3357.87931	0.326186131
3355.9506	0.3261959
3354.02189	0.326512051
3352.09319	0.326521344
3350.16448	0.326382593
3348.23577	0.326392033
3346.30706	0.326401447
3344.37836	0.326263538
3342.44965	0.326273096
3340.52094	0.326585695
3338.59224	0.326448137
3336.66353	0.326457399
3334.73482	0.326320501
3332.80611	0.326776933
3330.87741	0.326639893
3328.9487	0.326503341
3327.01999	0.326512456
3325.09129	0.326820604
3323.16258	0.326829268
3321.23387	0.326693227
3319.30516	0.326999558
3317.37646	0.327007944
3315.44775	0.326872247
3313.51904	0.326737027
3311.59033	0.327041264
3309.66163	0.326906223
3307.73292	0.326914661
3305.80421	0.327217125
3303.87551	0.327082425
3301.9468	0.326948193
3300.01809	0.327391304
3298.08938	0.327256944
3296.16068	0.327556326
3294.23197	0.327422145
3292.30326	0.327720207
3290.37455	0.327586207
3288.44585	0.327452668
3286.51714	0.327460249
3284.58843	0.32761578
3282.65973	0.327910959
3280.73102	0.327777778
3278.80231	0.327645051
3276.8736	0.327512777
3274.9449	0.327520204
3273.01619	0.327813163
3271.08748	0.327542373
3269.15878	0.327411168
3267.23007	0.327702703
3265.30136	0.327993255
3263.37265	0.327861953
3261.44395	0.328151261
3259.51524	0.328157784
3257.58653	0.328026812
3255.65782	0.328314513
3253.72912	0.328601253
3251.80041	0.328470196
3249.8717	0.328339576
3247.943	0.328624844
3246.01429	0.328494401
3244.08558	0.328364389
3242.15687	0.328234808
3240.22817	0.328518366
3238.29946	0.328388958
3236.37075	0.328395062
3234.44204	0.328266228
3232.51334	0.328413284
3230.58463	0.328694228
3228.65592	0.328565591
3226.72722	0.328437373
3224.79851	0.328716904
3222.8698	0.328588857
3220.94109	0.328867235
3219.01239	0.32873936
3217.08368	0.329016592
3215.15497	0.328888889
3213.22627	0.329164986
3211.29756	0.329440193
3209.36885	0.329180064
3207.44014	0.329454254
3205.51144	0.329326923
3203.58273	0.3292
3201.65402	0.329073482
3199.72531	0.329346093
3197.79661	0.329219745
3195.8679	0.3290938
3193.93919	0.329234431
3192.01049	0.32950495
3190.08178	0.329774614
3188.15307	0.329518548
3186.22436	0.329393223
3184.29566	0.329661684
3182.36695	0.329536528
3180.43824	0.329803922
3178.50953	0.329678935
3176.58083	0.329816335
3174.65212	0.329691767
3172.72341	0.32982866
3170.79471	0.330093313
3168.866	0.329968944
3166.93729	0.329844961
3165.00858	0.330108359
3163.07988	0.330243337
3161.15117	0.330119553
3159.22246	0.330381209
3157.29376	0.330642061
3155.36505	0.330518234
3153.43634	0.330651341
3151.50763	0.330527927
3149.57893	0.33078686
3147.65022	0.330663616
3145.72151	0.330414922
3143.7928	0.330672748
3141.8641	0.330804249
3139.93539	0.330556607
3138.00668	0.330812854
3136.07798	0.331068328
3134.14927	0.330821402
3132.22056	0.331075997
3130.29185	0.331329827
3128.36315	0.331207802
3126.43444	0.331086142
3124.50573	0.331214953
3122.57702	0.331093692
3120.64832	0.331222057
3118.71961	0.331473214
3116.7909	0.331352155
3114.8622	0.331479422
3112.93349	0.331728989
3111.00478	0.331855137
3109.07607	0.331734317
3107.14737	0.331860037
3105.21866	0.331617647
3103.28995	0.331864905
3101.36125	0.332111437
3099.43254	0.331991215
3097.50383	0.332115455
3095.57512	0.331874544
3093.64642	0.332119446
3091.71771	0.331879317
3089.789	0.332123412
3087.86029	0.332246377
3085.93159	0.332127352
3084.00288	0.33224991
3082.07417	0.332491886
3080.14547	0.332613391
3078.21676	0.332734459
3076.28805	0.332615716
3074.35934	0.332497313
3072.43064	0.332618026
3070.50193	0.3325
3068.57322	0.332738944
3066.64451	0.332858669
3064.71581	0.333096338
3062.7871	0.332860185
3060.85839	0.3329791
3058.92969	0.332861691
3057.00098	0.333097845
3055.07227	0.332863188
3053.14356	0.333098592
3051.21486	0.332864675
3049.28615	0.333099333
3047.35744	0.333333333
3045.42874	0.333449965
3043.50003	0.333682739
3041.57132	0.333449599
3039.64261	0.333333333
3037.71391	0.333565217
3035.7852	0.333449114
3033.85649	0.333680194
3031.92778	0.333448753
3029.99908	0.333679115
3028.07037	0.33390884
3026.14166	0.333678042
3024.21296	0.333907057
3022.28425	0.333791681
3020.35554	0.333676622
3018.42683	0.333904697
3016.49813	0.333789798
3014.56942	0.333675214
3012.64071	0.334016393
3010.712	0.333901774
3008.7833	0.334128065
3006.85459	0.334467506
3004.92588	0.334352701
3002.99718	0.334238208
3001.06847	0.334237288
2999.13976	0.334575008
2997.21105	0.334573748
2995.28235	0.334685598
2993.35364	0.334797297
2991.42493	0.334908845
2989.49623	0.334682861
2987.56752	0.334907251
2985.63881	0.33513149
2983.7101	0.33513149
2981.7814	0.335244519
2979.85269	0.335357625
2977.92398	0.335246455
2975.99527	0.335361731
2974.06657	0.335590924
2972.13786	0.335595521
2970.20915	0.335828513
2968.28045	0.335948158
2966.35174	0.335838743
2964.42303	0.336068376
2962.49432	0.336180389
2960.56562	0.336059986
2958.63691	0.336051648
2956.7082	0.336154367
2954.77949	0.336256324
2952.85079	0.336693548
2950.92208	0.336570663
2948.99337	0.336673347
2947.06467	0.336778926
2945.13596	0.336663337
2943.20725	0.336439268
2941.27854	0.336439268
2939.34984	0.336551265
2937.42113	0.336663337
2935.49242	0.336330336
2933.56372	0.336663337
2931.63501	0.336772047
2929.7063	0.336768617
2927.77759	0.336985392
2925.84889	0.337089824
2923.92018	0.337301587
2921.99147	0.337401055
2920.06276	0.337278107
2918.13406	0.337155963
2916.20535	0.337251061
2914.27664	0.337129841
2912.34794	0.337118754
2910.41923	0.337216828
2908.49052	0.337637185
2906.56181	0.337520129
2904.63311	0.337724936
2902.7044	0.337608208
2900.77569	0.3378119
2898.84698	0.338014682
2896.91828	0.337898089
2894.98957	0.337782015
2893.06086	0.337666455
2891.13216	0.337974684
2889.20345	0.33807267
2887.27474	0.338170347
2885.34603	0.338374291
2883.41733	0.338263059
2881.48862	0.338679245
2879.55991	0.338466373
2877.63121	0.338567839
2875.7025	0.338562912
2873.77379	0.338451896
2871.84508	0.338654147
2869.91638	0.33875
2867.98767	0.338845554
2866.05896	0.33894081
2864.13025	0.338830118
2862.20155	0.339030454
2860.27284	0.339230292
2858.34413	0.339224806
2856.41543	0.339318885
2854.48672	0.339412674
2852.55801	0.33929673
2850.6293	0.339384615
2848.7006	0.339263804
2846.77189	0.339449541
2844.84318	0.339634146
2842.91447	0.339616905
2840.98577	0.33970276
2839.05706	0.3397882
2837.12835	0.339673913
2835.19965	0.339963834
2833.27094	0.339951865
2831.34223	0.33993994
2829.41352	0.340029985
2827.48482	0.340017959
2825.55611	0.340107591
2823.6274	0.340196956
2821.6987	0.340286055
2819.76999	0.340374888
2817.84128	0.340267459
2815.91257	0.340255117
2813.98387	0.340343602
2812.05516	0.340532544
2810.12645	0.340620384
2808.19774	0.340808498
2806.26904	0.340996169
2804.34033	0.34108299
2802.41162	0.340875698
2800.48292	0.340669014
2798.55421	0.340855803
2796.6255	0.341042155
2794.69679	0.341128325
2792.76809	0.341214244
2790.83938	0.341299913
2788.91067	0.341193595
2786.98196	0.341569767
2785.05326	0.341364296
2783.12455	0.341449275
2781.19584	0.341632889
2779.26714	0.341717259
2777.33843	0.341512702
2775.40972	0.341695502
2773.48101	0.34187788
2771.55231	0.341673857
2769.6236	0.341855789
2767.69489	0.341939185
2765.76619	0.342120344
2763.83748	0.342203147
2761.90877	0.342097742
2759.98006	0.342278047
2758.05136	0.342360319
2756.12265	0.342539863
2754.19394	0.342434585
2752.26523	0.342516331
2750.33653	0.342695035
2748.40782	0.342873335
2746.47911	0.342671194
2744.55041	0.34275219
2742.6217	0.342929721
2740.69299	0.343106851
2738.76428	0.343283582
2736.83558	0.343082115
2734.90687	0.343258427
2732.97816	0.343434343
2731.04945	0.343513589
2729.12075	0.3434089
2727.19204	0.343487982
2725.26333	0.343566843
2723.33463	0.343741288
2721.40592	0.343541203
2719.47721	0.343715239
2717.5485	0.343888889
2715.6198	0.343966713
2713.69109	0.343767313
2711.76238	0.343940232
2709.83368	0.344017684
2707.90497	0.344189898
2705.97626	0.344361731
2704.04755	0.34425778
2702.11885	0.344334433
2700.19014	0.344410876
2698.26143	0.344581619
2696.33272	0.344657534
2694.40402	0.344553914
2692.47531	0.344723893
2690.5466	0.344893501
2688.6179	0.345241342
2686.68919	0.345137565
2684.76048	0.345306122
2682.83177	0.345108696
2680.90307	0.345276873
2678.97436	0.345351044
2677.04565	0.345518549
2675.11694	0.345415202
2673.18824	0.345488925
2671.25953	0.345385861
2669.33082	0.345552561
2667.40212	0.345625841
2665.47341	0.34579188
2663.5447	0.345864662
2661.61599	0.346030043
2659.68729	0.346102331
2657.75858	0.346267059
2655.82987	0.346338856
2653.90117	0.346235985
2651.97246	0.346307651
2650.04375	0.346379127
2648.11504	0.346542553
2646.18634	0.346439957
2644.25763	0.346602972
2642.32892	0.346673734
2640.40021	0.346836113
2638.47151	0.346906399
2636.5428	0.346804015
2634.61409	0.346874176
2632.68539	0.347035573
2630.75668	0.347196631
2628.82797	0.347266036
2626.89926	0.347426471
2624.97056	0.34749541
2623.04185	0.347393241
2621.11314	0.347552997
2619.18443	0.347712418
2617.25573	0.347519582
2615.32702	0.347588005
2613.39831	0.34765625
2611.46961	0.347814776
2609.5409	0.347622759
2607.61219	0.34778095
2605.68348	0.347848626
2603.75478	0.348006214
2601.82607	0.348163476
2599.89736	0.348320413
2597.96865	0.348387097
2596.03995	0.348285641
2594.11124	0.348699459
2592.18253	0.34850823
2590.25383	0.348574364
2588.32512	0.348640328
2586.39641	0.348539211
2584.4677	0.348605068
2582.539	0.349015597
2580.61029	0.34916986
2578.68158	0.349234694
2576.75288	0.349044586
2574.82417	0.348943752
2572.89546	0.349008643
2570.96675	0.349415947
2569.03805	0.349480091
2567.10934	0.349379275
2565.18063	0.34944332
2563.25192	0.349507202
2561.32322	0.349570924
2559.39451	0.349722642
2557.4658	0.349874055
2555.5371	0.350025164
2553.60839	0.350087962
2551.67968	0.350238514
2549.75097	0.350300903
2547.82227	0.350450902
2545.89356	0.350262697
2543.96485	0.350412397
2542.03614	0.350474289
2540.10744	0.350536026
2538.17873	0.350435866
2536.25002	0.350746269
2534.32132	0.350894632
2532.39261	0.350955572
2530.4639	0.351016361
2528.53519	0.351163943
2526.60649	0.351311232
2524.67778	0.351371386
2522.74907	0.351518144
2520.82037	0.351331361
2518.89166	0.351391283
2516.96295	0.351537515
2515.03424	0.351597052
2513.10554	0.351656442
2511.17683	0.351801912
2509.24812	0.351947098
2507.31941	0.351761252
2505.39071	0.351820181
2503.462	0.351878965
2501.53329	0.352023403
2499.60459	0.352081812
2497.67588	0.352140078
2495.74717	0.352283771
2493.81846	0.352427184
2491.88976	0.352484848
2489.96105	0.352627755
2488.03234	0.352685051
2486.10363	0.352742208
2484.17493	0.352884383
2482.24622	0.352941176
2480.31751	0.352997833
2478.38881	0.353139283
2476.4601	0.353195579
2474.53139	0.353096495
2472.60268	0.353392472
2470.67398	0.353448276
2468.74527	0.353588517
2466.81656	0.353643967
2464.88786	0.353699284
2462.95915	0.353600381
2461.03044	0.353893784
2459.10173	0.35394862
2457.17303	0.354003326
2455.24432	0.354057902
2453.31561	0.354196302
2451.3869	0.354097584
2449.4582	0.354151881
2447.52949	0.354289766
2445.60078	0.35434372
2443.67208	0.354549741
2441.74337	0.354686764
2439.81466	0.354740061
2437.88595	0.354641598
2435.95725	0.354694836
2434.02854	0.354982415
2432.09983	0.355118295
2430.17112	0.3551708
2428.24242	0.355223183
2426.31371	0.355275444
2424.385	0.355327582
2422.4563	0.355146716
2420.52759	0.355281526
2418.59888	0.355333488
2416.67017	0.35538533
2414.74147	0.355437051
2412.81276	0.355488652
2410.88405	0.355771455
2408.95535	0.355904784
2407.02664	0.355955679
2405.09793	0.356006456
2403.16922	0.356287425
2401.24052	0.356337704
2399.31181	0.356158088
2397.3831	0.356290174
2395.45439	0.356340289
2393.52569	0.356619331
2391.59698	0.356750572
2389.66827	0.3568
2387.73957	0.356767861
2385.81086	0.356817145
2383.88215	0.356866317
2381.95344	0.356996587
2380.02474	0.357045455
2378.09603	0.357175295
2376.16732	0.35722386
2374.23861	0.357272315
2372.30991	0.357401539
2370.3812	0.357223604
2368.45249	0.357271906
2366.52379	0.357400722
2364.59508	0.357674104
2362.66637	0.357946871
2360.73766	0.357994153
2358.80896	0.35804133
2356.88025	0.358008075
2354.95154	0.35805512
2353.02284	0.358021929
2351.09413	0.358292356
2349.16542	0.358338915
2347.23671	0.358465313
2345.30801	0.358511586
2343.3793	0.358637578
2341.45059	0.358683567
2339.52188	0.358809154
2337.59318	0.35885486
2335.66447	0.358900466
2333.73576	0.35894597
2331.80706	0.359212564
2329.87835	0.359178264
2327.94964	0.359223301
2326.02093	0.359268239
2324.09223	0.359533245
2322.16352	0.359498681
2320.23481	0.359762794
2318.3061	0.359806933
2316.3774	0.359850975
2314.44869	0.359894921
2312.51998	0.360157446
2310.59128	0.360122297
2308.66257	0.360165794
2306.73386	0.360287707
2304.80515	0.360330938
2302.87645	0.360374076
2300.94774	0.360634369
2299.01903	0.360677083
2297.09033	0.360502927
2295.16162	0.360545691
2293.23291	0.360882735
2291.3042	0.360925005
2289.3755	0.361045131
2287.44679	0.361087144
2285.51808	0.361129067
2283.58937	0.3611709
2281.66067	0.361212642
2279.73196	0.361254296
2277.80325	0.361373391
2275.87455	0.361414791
2273.94584	0.361456103
2272.01713	0.361497326
2270.08842	0.36161573
2268.15972	0.361870196
2266.23101	0.361910855
2264.3023	0.361951427
2262.37359	0.362068966
2260.44489	0.362321922
2258.51618	0.362361937
2256.58747	0.362401867
2254.65877	0.362364908
2252.73006	0.362404742
2250.80135	0.362655953
2248.87264	0.362618796
2246.94394	0.362869198
2245.01523	0.362831858
2243.08652	0.362870975
2241.15782	0.363043935
2239.22911	0.363006509
2237.3004	0.363255034
2235.37169	0.363426896
2233.44299	0.36346516
2231.51428	0.363427377
2229.58557	0.363598414
2227.65686	0.363560559
2225.72816	0.363806747
2223.79945	0.363768719
2221.87074	0.363806358
2219.94204	0.363975929
2218.01333	0.364013267
2216.08462	0.364182195
2214.15591	0.364219235
2212.22721	0.364387523
2210.2985	0.364424267
2208.36979	0.364460936
2206.44108	0.364422483
2204.51238	0.36445907
2202.58367	0.364701048
2200.65496	0.364737274
2198.72626	0.36497847
2196.79755	0.364939586
2194.86884	0.36497545
2192.94013	0.365011241
2191.01143	0.365251123
2189.08272	0.365286559
2187.15401	0.365525672
2185.22531	0.365560757
2183.2966	0.365595771
2181.36789	0.365630713
2179.43918	0.365665584
2177.51048	0.365903102
2175.58177	0.365937627
2173.65306	0.365972082
2171.72435	0.366006467
2169.79565	0.366242681
2167.86694	0.366276724
2165.93823	0.366310699
2164.00953	0.366545894
2162.08082	0.366579529
2160.15211	0.366613098
2158.2234	0.366445916
2156.2947	0.366479551
2154.36599	0.366586538
2152.43728	0.366619972
2150.50857	0.366926615
2148.57987	0.366979812
2146.65116	0.366979812
2144.72245	0.367179692
2142.79375	0.367265469
2140.86504	0.367330677
2138.93633	0.367468682
2137.00762	0.367553614
2135.07892	0.367585796
2133.15021	0.367617915
2131.2215	0.367775139
2129.2928	0.367734282
2127.36409	0.367963658
2125.43538	0.367922667
2123.50667	0.36815136
2121.57797	0.368379602
2119.64926	0.3684107
2117.72055	0.368369352
2115.79184	0.368400393
2113.86314	0.368555185
2111.93443	0.368585977
2110.00572	0.368740219
2108.07702	0.368770764
2106.14831	0.36872926
2104.2196	0.368954758
2102.29089	0.368984999
2100.36219	0.369137965
2098.43348	0.36909621
2096.50477	0.36924869
2094.57606	0.369472459
2092.64736	0.369624177
2090.71865	0.369582043
2088.78994	0.369733282
2086.86124	0.36969112
2084.93253	0.369841882
2083.00382	0.369992296
2081.07511	0.369949981
2079.14641	0.370171055
2077.2177	0.370128624
2075.28899	0.37008629
2073.36029	0.370235587
2071.43158	0.370193227
2069.50287	0.370292487
2067.57416	0.370391595
2065.64546	0.370610687
2063.71675	0.370688012
2061.78804	0.370694577
2059.85933	0.37077157
2057.93063	0.370918755
2056.00192	0.371065605
2054.07321	0.371212121
2052.14451	0.371428571
2050.2158	0.371385371
2048.28709	0.371342269
2046.35838	0.371299265
2044.42968	0.371444717
2042.50097	0.371471584
2040.57226	0.371616541
2038.64355	0.371761172
2036.71485	0.371975239
2034.78614	0.371931797
2032.85743	0.37202771
2030.92873	0.372075613
2029.00002	0.372310571
2027.07131	0.37231459
2025.1426	0.372318597
2023.2139	0.372578241
2021.28519	0.372534425
2019.35648	0.372745864
2017.42778	0.372585438
2015.49907	0.372796437
2013.57036	0.372752549
2011.64165	0.372893909
2009.71295	0.372918979
2007.78424	0.373128812
2005.85553	0.373153619
2003.92682	0.37317838
2001.99812	0.373387394
2000.06941	0.373411895
1998.1407	0.373551591
1996.212	0.373575891
1994.28329	0.373600147
1992.35458	0.373509448
1990.42587	0.373717009
1988.49717	0.373741073
1986.56846	0.373879641
1984.63975	0.374086257
1982.71104	0.374292496
1980.78234	0.374315943
1978.85363	0.374407583
1976.92492	0.374430887
1974.99622	0.374636099
1973.06751	0.374727273
1971.1388	0.374818314
1969.21009	0.374841169
1967.28139	0.374931979
1965.35268	0.375135919
1963.42397	0.375113204
1961.49527	0.375226696
1959.56656	0.375272331
1957.63785	0.375271936
1955.70914	0.375496928
1953.78044	0.375518298
1951.85173	0.375472717
1949.92302	0.375742307
1947.99431	0.375876326
1946.06561	0.37583049
1944.1369	0.375672766
1942.20819	0.375694569
1940.27949	0.376118869
1938.35078	0.376363311
1936.42207	0.376384423
1934.49336	0.376583973
1932.56466	0.37660485
1930.63595	0.37662569
1928.70724	0.376646493
1926.77853	0.376734258
1924.84983	0.376754932
1922.92112	0.376842479
1920.99241	0.376929902
1919.06371	0.377017202
1917.135	0.376970771
1915.20629	0.377144879
1913.27758	0.377275137
1911.34888	0.377361822
1909.42017	0.377381793
1907.49146	0.377578001
1905.56276	0.377707343
1903.63405	0.377726953
1901.70534	0.377922306
1899.77663	0.37800808
1897.84793	0.378093734
1895.91922	0.378179267
1893.99051	0.378198388
1892.0618	0.378283713
1890.1331	0.378368918
1888.20439	0.37838783
1886.27568	0.378689956
1884.34698	0.378883072
1882.41827	0.378901482
1880.48956	0.378919861
1878.56085	0.379112272
1876.63215	0.379130435
1874.70344	0.378974805
1872.77473	0.378951025
1870.84602	0.379124696
1868.91732	0.379166667
1866.98861	0.379334258
1865.0599	0.379608793
1863.1312	0.379733702
1861.20249	0.379751209
1859.27378	0.379596064
1857.34507	0.379786133
1855.41637	0.379975875
1853.48766	0.380230756
1851.55895	0.380247763
1849.63025	0.380158184
1847.70154	0.380092831
1845.77283	0.380158184
1843.84412	0.38024055
1841.91542	0.380445969
1839.98671	0.380715876
1838.058	0.380838323
1836.12929	0.380854701
1834.20059	0.38087105
1832.27188	0.380976776
1830.34317	0.380846705
1828.41447	0.380928011
1826.48576	0.381049761
1824.55705	0.381001021
1822.62834	0.381227682
1820.69964	0.3815186
1818.77093	0.381599049
1816.84222	0.381509754
1814.91351	0.381654798
1812.98481	0.381694915
1811.0561	0.381839743
1809.12739	0.381919756
1807.19869	0.382168838
1805.26998	0.382144065
1803.34127	0.382144065
1801.41256	0.382144065
1799.48386	0.382352941
1797.55515	0.382432432
1795.62644	0.382601351
1793.69774	0.382457326
1791.76903	0.382457326
1789.84032	0.38274523
1787.91161	0.382824363
1785.98291	0.382993083
1784.0542	0.382993083
1782.12549	0.383097166
1780.19678	0.383201214
1778.26808	0.383409206
1776.33937	0.383473862
1774.41066	0.383459916
1772.48196	0.383381186
1770.55325	0.383420564
1768.62454	0.383603239
1766.69583	0.383889451
1764.76713	0.38403234
1762.83842	0.38399326
1760.90971	0.384291252
1758.981	0.384356035
1757.0523	0.384381852
1755.12359	0.384537475
1753.19488	0.384511329
1751.26618	0.384615385
1749.33747	0.384667571
1747.40876	0.384863397
1745.48005	0.385059423
1743.55135	0.38517763
1741.62264	0.385361702
1739.69393	0.385519591
1737.76523	0.385507246
1735.83652	0.385521598
1733.90781	0.385443362
1731.9791	0.385638751
1730.0504	0.385806671
1728.12169	0.38600068
1726.19298	0.386089907
1724.26427	0.386074877
1722.33557	0.386255924
1720.40686	0.386086662
1718.47815	0.3859174
1716.54945	0.385967878
1714.62074	0.386275502
1712.69203	0.386516476
1710.76332	0.386577181
1708.83462	0.386626445
1706.90591	0.386534919
1704.9772	0.386481512
1703.04849	0.386416862
1701.11979	0.386314204
1699.19108	0.386530749
1697.26237	0.386693347
1695.33367	0.387021631
1693.40496	0.387155659
1691.47625	0.387342611
1689.54754	0.387315781
1687.61884	0.38727845
1685.69013	0.387332117
1683.76142	0.387332117
1681.83272	0.387454485
1679.90401	0.387704512
1677.9753	0.387741616
1676.04659	0.387640449
1674.11789	0.387677569
1672.18918	0.387650652
1670.26047	0.387714663
1668.33176	0.387889787
1666.40306	0.38820234
1664.47435	0.388467875
1662.54564	0.388403887
1660.61694	0.388477366
1658.68823	0.388514069
1656.75952	0.388367112
1654.83081	0.388136153
1652.90211	0.388355938
1650.9734	0.388577088
1649.04469	0.388623248
1647.11598	0.388623248
1645.18728	0.388733322
1643.25857	0.388916297
1641.32986	0.388989318
1639.40116	0.389080743
1637.47245	0.388934629
1635.54374	0.38889804
1633.61503	0.389309211
1631.68633	0.389554935
1629.75762	0.389755377
1627.82891	0.389655172
1625.90021	0.38978318
1623.9715	0.389847215
1622.04279	0.389883396
1620.11408	0.39008373
1618.18538	0.390211857
1616.25667	0.390412083
1614.32796	0.390391868
1612.39925	0.390563565
1610.47055	0.39049959
1608.54184	0.390663391
1606.61313	0.390862944
1604.68443	0.391062367
1602.75572	0.39109802
1600.82701	0.391069676
1598.8983	0.391268803
1596.9696	0.391240399
1595.04089	0.391375368
1593.11218	0.391382406
1591.18347	0.391552511
1589.25477	0.39172234
1587.32606	0.391828097
1585.39735	0.391997398
1583.46865	0.391940201
1581.53994	0.392010393
1579.61123	0.392109109
1577.68252	0.392236479
1575.75382	0.392144132
1573.82511	0.392220421
1571.8964	0.392226721
1569.96769	0.392198122
1568.03899	0.392302717
1566.11028	0.39244186
1564.18157	0.392574657
1562.25287	0.392533937
1560.32416	0.39232513
1558.39545	0.392226721
1556.46674	0.392632089
1554.53804	0.392908944
1552.60933	0.392983585
1550.68062	0.393052428
1548.75192	0.393086817
1546.82321	0.3932765
1544.8945	0.393075684
1542.96579	0.393064516
1541.03709	0.393093432
1539.10838	0.393265668
1537.17967	0.393637532
1535.25096	0.393550457
1533.32226	0.393618727
1531.39355	0.393657912
1529.46484	0.393725992
1527.53614	0.393691963
1525.60743	0.393784044
1523.67872	0.393905373
1521.75001	0.393739968
1519.82131	0.39387133
1517.8926	0.393910256
1515.96389	0.394235388
1514.03518	0.394429326
1512.10648	0.394492475
1510.17777	0.394391026
1508.24906	0.394352639
1506.32036	0.394420394
1504.39165	0.394913628
1502.46294	0.395018362
1500.53423	0.395081444
1498.60553	0.395140665
1496.67682	0.395300512
1494.74811	0.395527157
1492.81941	0.395367412
1490.8907	0.395203837
1488.96199	0.395330241
1487.03328	0.395716797
1485.10458	0.396039604
1483.17587	0.396072797
1481.24716	0.396039604
1479.31845	0.396036439
1477.38975	0.396126761
1475.46104	0.396087235
1473.53233	0.396241568
1471.60363	0.396335583
1469.67492	0.396560039
1467.74621	0.396654335
1465.8175	0.396618357
1463.8888	0.396746134
1461.96009	0.396873993
1460.03138	0.396707553
1458.10267	0.396507115
1456.17397	0.396604689
1454.24526	0.396902227
1452.31655	0.39713227
1450.38785	0.397326462
1448.45914	0.39742351
1446.53043	0.39748954
1444.60172	0.397588424
1442.67302	0.397718142
1440.74431	0.397782064
1438.8156	0.397811394
1436.8869	0.397648575
1434.95819	0.397875423
1433.02948	0.398037954
1431.10077	0.398134748
1429.17207	0.398198778
1427.24336	0.398359601
1425.31465	0.39839099
1423.38594	0.398453857
1421.45724	0.398451363
1419.52853	0.398448861
1417.59982	0.398577663
1415.67112	0.398707593
1413.74241	0.398933592
1411.8137	0.399094437
1409.88499	0.399255543
1407.95629	0.39925494
1406.02758	0.399319066
1404.09887	0.399415964
1402.17016	0.399512987
1400.24146	0.399610136
1398.31275	0.399479928
1396.38404	0.399479928
1394.45534	0.39970765
1392.52663	0.399902661
1390.59792	0.400032431
1388.66921	0.4
1386.74051	0.400129807
1384.8118	0.400421667
1382.88309	0.400713244
1380.95439	0.400842515
1379.02568	0.400939576
1377.09697	0.40077758
1375.16826	0.400745422
1373.23956	0.400842515
1371.31085	0.401036605
1369.38214	0.401068653
1367.45343	0.401327505
1365.52473	0.401327505
1363.59602	0.40123057
1361.66731	0.401359443
1359.73861	0.401616815
1357.8099	0.40177706
1355.88119	0.401743904
1353.95248	0.401872176
1352.02378	0.402161639
1350.09507	0.40222473
1348.16636	0.402126631
1346.23765	0.402189664
1344.30895	0.402317348
1342.38024	0.402252615
1340.45153	0.402252615
1338.52283	0.40254101
1336.59412	0.402699663
1334.66541	0.402793386
1332.7367	0.402791145
1330.808	0.402853479
1328.87929	0.402820061
1326.95058	0.402851193
1325.02188	0.402946829
1323.09317	0.403106983
1321.16446	0.403171552
1319.23575	0.403236142
1317.30705	0.403300753
1315.37834	0.403430037
1313.44963	0.40349471
1311.52092	0.40339907
1309.59222	0.403624118
1307.66351	0.403753609
1305.7348	0.403883184
1303.8061	0.404012841
1301.87739	0.403951173
1299.94868	0.403985216
1298.01997	0.404310068
1296.09127	0.404409398
1294.16256	0.404412949
1292.23385	0.404577692
1290.30514	0.4047427
1288.37644	0.404746529
1286.44773	0.404815772
1284.51902	0.40472339
1282.59032	0.404923874
1280.66161	0.405059186
1278.7329	0.405164014
1276.80419	0.405401009
1274.87549	0.405541972
1272.94678	0.405718954
1271.01807	0.4057686
1269.08937	0.405890095
1267.16066	0.406084656
1265.23195	0.406281157
1263.30324	0.406338616
1261.37454	0.406516291
1259.44583	0.406609915
1257.51712	0.406827644
1255.58841	0.406743066
1253.65971	0.406762805
1251.731	0.406757204
1249.80229	0.406922822
1247.87359	0.407026848
1245.94488	0.40719854
1244.01617	0.407339754
1242.08746	0.407315046
1240.15876	0.407358082
1238.23005	0.407469156
1236.30134	0.407580564
1234.37263	0.407760495
1232.44393	0.407705193
1230.51522	0.40781748
1228.58651	0.407930108
1226.65781	0.408043076
1224.7291	0.408225181
1222.80039	0.408407901
1220.87168	0.408660352
1218.94298	0.40884446
1217.01427	0.409098625
1215.08556	0.409183673
1213.15686	0.409338787
1211.22815	0.409494536
1209.29944	0.409549889
1207.37073	0.409777015
1205.44203	0.409833247
1203.51332	0.409889731
1201.58461	0.410048343
1199.6559	0.410278595
1197.7272	0.410509886
1195.79849	0.410742221
1193.86978	0.41097561
1191.94108	0.411138268
1190.01237	0.41130161
1188.08366	0.411362441
1186.15495	0.411320091
1184.22625	0.411495063
1182.29754	0.411816734
1180.36883	0.411921235
1178.44012	0.412193388
1176.51142	0.412319744
1174.58271	0.412415269
1172.654	0.412584912
1170.7253	0.412650063
1168.79659	0.412969283
1166.86788	0.4132157
1164.93917	0.413357401
1163.01047	0.413680782
1161.08176	0.41374932
1159.15305	0.413893435
1157.22435	0.414113786
1155.29564	0.414335345
1153.36693	0.414634146
1151.43822	0.414750782
1149.50952	0.414944649
1147.58081	0.415139737
1145.6521	0.415304606
1143.72339	0.415657036
1141.79469	0.415934169
1139.86598	0.416166542
1137.93727	0.416400226
1136.00857	0.416446624
1134.07986	0.416650899
1132.15115	0.416745776
1130.22244	0.417190776
1128.29374	0.417336395
1126.36503	0.417371253
1124.43632	0.417599382
1122.50761	0.417910448
1120.57891	0.418111003
1118.6502	0.418395303
1116.72149	0.418568057
1114.79279	0.419023136
1112.86408	0.419367668
1110.93537	0.4196
1109.00666	0.419919517
1107.07796	0.420040486
1105.14925	0.420366599
1103.22054	0.420610531
1101.29184	0.421096003
1099.36313	0.421444835
1097.43442	0.421949699
1095.50571	0.422106361
1093.57701	0.422208281
1091.6483	0.422520445
1089.71959	0.422834315
1087.79088	0.423417722
1085.86218	0.423883125
1083.93347	0.424229543
1082.00476	0.424669227
1080.07606	0.424807198
1078.14735	0.425252743
1076.21864	0.425642133
1074.28993	0.425849751
1072.36123	0.426090731
1070.43252	0.42667537
1068.50381	0.427044711
1066.5751	0.427634456
1064.6464	0.42800789
1062.71769	0.428477258
1060.78898	0.428854626
1058.86028	0.429265063
1056.93157	0.42961326
1055.00286	0.429898275
1053.07415	0.430309735
1051.14545	0.430942895
1049.21674	0.431229236
1047.28803	0.431641923
1045.35933	0.431929047
1043.43062	0.432438429
1041.50191	0.433044637
1039.5732	0.433651923
1037.6445	0.43435692
1035.71579	0.435092407
1033.78708	0.435926008
1031.85837	0.436440678
1029.92967	0.43708166
1028.00096	0.43762553
1026.07225	0.438099487
1024.14355	0.438823267
1022.21484	0.439225289
1020.28613	0.439626418
1018.35742	0.439928936
1016.42872	0.440133038
1014.50001	0.440681718
1012.5713	0.441130992
1010.64259	0.441798942
1008.71389	0.442366916
1006.78518	0.442687747
1004.85647	0.443007453
1002.92777	0.443495401
1000.99906	0.443860801
999.07035	0.444420131
997.14164	0.444760446
995.21294	0.445392865
993.28423	0.445806875
991.35552	0.446197677
989.42682	0.446883231
987.49811	0.447669305
985.5694	0.448336638
983.64069	0.449304175
981.71199	0.449811655
979.78328	0.450622776
977.85457	0.451641724
975.92586	0.452669358
973.99716	0.453378378
972.06845	0.454339964
970.13974	0.455205262
968.21104	0.456200228
966.28233	0.457097216
964.35362	0.457894737
962.42491	0.458926113
960.49621	0.459733088
958.5675	0.460420032
956.63879	0.461093099
954.71008	0.461878196
952.78138	0.462543757
950.85267	0.463540445
948.92396	0.464420358
946.99526	0.465402844
945.06655	0.466142108
943.13784	0.4668747
941.20913	0.467472793
939.28043	0.468178493
937.35172	0.468880689
935.42301	0.469828657
933.49431	0.470794685
931.5656	0.471779296
929.63689	0.472420838
927.70818	0.473209686
925.77948	0.473766234
923.85077	0.474207908
921.92206	0.475046211
919.99335	0.475898802
918.06465	0.47662547
916.13594	0.477223427
914.20723	0.477820372
912.27853	0.478417266
910.34982	0.479294908
908.42111	0.479762242
906.4924	0.480378115
904.5637	0.481008988
902.63499	0.481948929
900.70628	0.482635797
898.77757	0.483348335
896.84887	0.484086087
894.92016	0.484839204
892.99145	0.485758514
891.06275	0.486384977
889.13404	0.486862931
887.20533	0.487351905
885.27662	0.487852284
883.34792	0.48853211
881.41921	0.48922771
879.4905	0.48961126
877.5618	0.490348798
875.63309	0.490766074
873.70438	0.491718427
871.77567	0.491826087
869.84697	0.492113565
867.91826	0.49240551
865.98955	0.493058028
864.06084	0.493366798
862.13214	0.49404117
860.20343	0.494361586
858.27472	0.494871795
856.34602	0.494837758
854.41731	0.495174462
852.4886	0.495515695
850.55989	0.49586155
848.63119	0.496024233
846.70248	0.496380952
844.77377	0.496361547
842.84506	0.496726993
840.91636	0.496517028
838.98765	0.49630494
837.05894	0.496675792
835.13024	0.496855346
833.20153	0.497036744
831.27282	0.496428571
829.34411	0.496213631
827.41541	0.496195435
825.4867	0.496376812
823.55799	0.496155403
821.62929	0.496136641
819.70058	0.495709031
817.77187	0.494870743
815.84316	0.494641385
813.91446	0.494409938
811.98575	0.49354973
810.05704	0.493305439
808.12833	0.492430614
806.19963	0.491761724
804.27092	0.491094148
802.34221	0.490429604
800.41351	0.489769821
798.4848	0.488481229
796.55609	0.487409304
794.62738	0.486348123
792.69868	0.485287846
790.76997	0.484448232
788.84126	0.482978723
786.91255	0.482142857
784.98385	0.480662983
783.05514	0.479184367
781.12643	0.477707006
779.19773	0.47602885
777.26902	0.474554707
775.34031	0.472881356
773.4116	0.471634208
771.4829	0.469568893
769.55419	0.467932489
767.62548	0.466498104
765.69678	0.464646465
763.76807	0.462994113
761.83936	0.461118117
759.91065	0.459436738
757.98195	0.457755359
756.05324	0.456037021
754.12453	0.454507161
752.19582	0.452973429
750.26712	0.451626531
748.33841	0.450275074
746.4097	0.449299958
744.481	0.447469162
742.55229	0.445819113
740.62358	0.444777397
738.69487	0.443776824
736.76617	0.44253121
734.83746	0.441900648
732.90875	0.441023417
730.98004	0.440139312
729.05134	0.438811189
727.12263	0.437664618
725.19392	0.437141597
723.26522	0.436807095
721.33651	0.436469015
719.4078	0.43632287
717.47909	0.435527502
715.55039	0.434723481
713.62168	0.434564523
711.69297	0.434144103
709.76427	0.433979686
707.83556	0.433550186
705.90685	0.433582788
703.97814	0.433615819
702.04944	0.433380749
700.12073	0.433142311
698.19202	0.432900433
696.26331	0.432170543
694.33461	0.432128906
692.4059	0.432086614
690.47719	0.432539683
688.54849	0.4325
686.61978	0.432173475
684.69107	0.432281059
682.76236	0.432390746
680.83366	0.432053942
678.90495	0.43118786
676.97624	0.430834213
675.04753	0.431236674
673.11883	0.431879375
671.19012	0.431991295
669.26141	0.432105553
667.33271	0.432537479
665.404	0.432417274
663.47529	0.432294618
661.54658	0.431597023
659.61788	0.431463274
657.68917	0.431911163
655.76046	0.432033097
653.83176	0.433014354
651.90305	0.432889964
649.97434	0.432762836
648.04563	0.432983323
646.11693	0.432938241
644.18822	0.432347388
642.25951	0.43202033
640.3308	0.432969852
638.4021	0.433009709
636.47339	0.433333333
634.54468	0.4332893
632.61598	0.432486631
630.68727	0.432341001
628.75856	0.433173406
626.82985	0.433333333
624.90115	0.432793807
622.97244	0.432952924
621.04373	0.432803468
619.11502	0.433796635
617.18632	0.434171598
615.25761	0.434977578
613.3289	0.43438914
611.4002	0.433890578
609.47149	0.434150077
607.54278	0.43441358
605.61407	0.434241245
603.68537	0.434065934
601.75666	0.434231379
