4999.20917	0.338823529
4997.28046	0.337236534
4995.35176	0.336448598
4993.42305	0.337995338
4991.49434	0.337209302
4989.56564	0.336426914
4987.63693	0.337962963
4985.70822	0.337962963
4983.77951	0.337182448
4981.85081	0.338709677
4979.9221	0.337931034
4977.99339	0.337155963
4976.06468	0.336384439
4974.13598	0.337899543
4972.20727	0.337129841
4970.27856	0.337129841
4968.34986	0.336363636
4966.42115	0.337868481
4964.49244	0.337104072
4962.56373	0.338600451
4960.63503	0.337837838
4958.70632	0.337078652
4956.77761	0.338565022
4954.8489	0.337807606
4952.9202	0.337053571
4950.99149	0.336302895
4949.06278	0.337777778
4947.13408	0.337028825
4945.20537	0.336283186
4943.27666	0.337748344
4941.34795	0.337004405
4939.41925	0.336263736
4937.49054	0.335526316
4935.56183	0.336980306
4933.63313	0.336244541
4931.70442	0.335511983
4929.77571	0.336956522
4927.847	0.336225597
4925.9183	0.337662338
4923.98959	0.336933045
4922.06088	0.338362069
4920.13217	0.337634409
4918.20347	0.336909871
4916.27476	0.336188437
4914.34605	0.337606838
4912.41735	0.336886994
4910.48864	0.338297872
4908.55993	0.337579618
4906.63122	0.336864407
4904.70252	0.33615222
4902.77381	0.335443038
4900.8451	0.336842105
4898.91639	0.336134454
4896.98769	0.337526205
4895.05898	0.336820084
4893.13027	0.33611691
4891.20157	0.335416667
4889.27286	0.336798337
4887.34415	0.336099585
4885.41544	0.33747412
4883.48674	0.336082474
4881.55803	0.335390947
4879.62932	0.33744856
4877.70062	0.336065574
4875.77191	0.335378323
4873.8432	0.336734694
4871.91449	0.33604888
4869.98579	0.335365854
4868.05708	0.336713996
4866.12837	0.335353535
4864.19966	0.337373737
4862.27096	0.336693548
4860.34225	0.336016097
4858.41354	0.335341365
4856.48484	0.336673347
4854.55613	0.336
4852.62742	0.337325349
4850.69871	0.335984095
4848.77001	0.33531746
4846.8413	0.334653465
4844.91259	0.335968379
4842.98388	0.335968379
4841.05518	0.337278107
4839.12647	0.335952849
4837.19776	0.335294118
4835.26906	0.336594912
4833.34035	0.3359375
4831.41164	0.335282651
4829.48293	0.336575875
4827.55423	0.33592233
4825.62552	0.334622824
4823.69681	0.335907336
4821.76811	0.335260116
4819.8394	0.334615385
4817.91069	0.335892514
4815.98198	0.335249042
4814.05328	0.335877863
4812.12457	0.335238095
4810.19586	0.33460076
4808.26715	0.335863378
4806.33845	0.335227273
4804.40974	0.334593573
4802.48103	0.333962264
4800.55233	0.335216573
4798.62362	0.333958724
4796.69491	0.335205993
4794.7662	0.334579439
4792.8375	0.335820896
4790.90879	0.335195531
4788.98008	0.333951763
4787.05137	0.333333333
4785.12267	0.334565619
4783.19396	0.335793358
4781.26525	0.335174954
4779.33655	0.333944954
4777.40784	0.333333333
4775.47913	0.332723949
4773.55042	0.333941606
4771.62172	0.333333333
4769.69301	0.332727273
4767.7643	0.333938294
4765.8356	0.333333333
4763.90689	0.333935018
4761.97818	0.333333333
4760.04947	0.334532374
4758.12077	0.333931777
4756.19206	0.335125448
4754.26335	0.334525939
4752.33464	0.333333333
4750.40594	0.332740214
4748.47723	0.333333333
4746.54852	0.332743363
4744.61982	0.333922261
4742.69111	0.333333333
4740.7624	0.332746479
4738.83369	0.332161687
4736.90499	0.333333333
4734.97628	0.333916084
4733.04757	0.333333333
4731.11886	0.332173913
4729.19016	0.333333333
4727.26145	0.332755633
4725.33274	0.332179931
4723.40404	0.331606218
4721.47533	0.332758621
4719.54662	0.33161512
4717.61791	0.332761578
4715.68921	0.332191781
4713.7605	0.332764505
4711.83179	0.332197615
4709.90308	0.331632653
4707.97438	0.332767402
4706.04567	0.33220339
4704.11696	0.333333333
4702.18826	0.332209106
4700.25955	0.331649832
4698.33084	0.332214765
4696.40213	0.331658291
4694.47343	0.331103679
4692.54472	0.331666667
4690.61601	0.331114809
4688.68731	0.332225914
4686.7586	0.331674959
4684.82989	0.332231405
4682.90118	0.331683168
4680.97248	0.331136738
4679.04377	0.330049261
4677.11506	0.331147541
4675.18635	0.330605565
4673.25765	0.331699346
4671.32894	0.331158238
4669.40023	0.331707317
4667.47153	0.331168831
4665.54282	0.33171521
4663.61411	0.331179321
4661.6854	0.332258065
4659.7567	0.331723027
4657.82799	0.331189711
4655.89928	0.331730769
4653.97057	0.3312
4652.04187	0.331738437
4650.11316	0.331210191
4648.18445	0.330683625
4646.25575	0.329635499
4644.32704	0.330173776
4642.39833	0.329652997
4640.46962	0.330708661
4638.54092	0.330188679
4636.61221	0.329153605
4634.6835	0.330203443
4632.7548	0.3296875
4630.82609	0.330218069
4628.89738	0.32970451
4626.96867	0.330232558
4625.03997	0.329721362
4623.11126	0.328703704
4621.18255	0.329738059
4619.25384	0.329230769
4617.32514	0.328725038
4615.39643	0.329249617
4613.46772	0.329770992
4611.53902	0.329268293
4609.61031	0.328767123
4607.6816	0.328267477
4605.75289	0.328787879
4603.82419	0.329803328
4601.89548	0.328808446
4599.96677	0.328313253
4598.03806	0.329323308
4596.10936	0.328335832
4594.18065	0.329341317
4592.25194	0.328358209
4590.32324	0.327868852
4588.39453	0.328869048
4586.46582	0.329376855
4584.53711	0.328888889
4582.60841	0.327917282
4580.6797	0.327433628
4578.75099	0.328424153
4576.82229	0.328928047
4574.89358	0.328445748
4572.96487	0.32748538
4571.03616	0.327007299
4569.10746	0.327510917
4567.17875	0.328488372
4565.25004	0.327536232
4563.32133	0.328509407
4561.39263	0.328034682
4559.46392	0.328530259
4557.53521	0.328057554
4555.60651	0.327116212
4553.6778	0.326647564
4551.74909	0.327142857
4549.82038	0.32810271
4547.89168	0.327635328
4545.96297	0.328125
4544.03426	0.327659574
4542.10555	0.326732673
4540.17685	0.327683616
4538.24814	0.326760563
4536.31943	0.326300985
4534.39073	0.326788219
4532.46202	0.326330532
4530.53331	0.327272727
4528.6046	0.327754533
4526.6759	0.32729805
4524.74719	0.326388889
4522.81848	0.3259362
4520.88978	0.326417704
4518.96107	0.325517241
4517.03236	0.326446281
4515.10365	0.326923077
4513.17495	0.326474623
4511.24624	0.325581395
4509.31753	0.326502732
4507.38882	0.325613079
4505.46012	0.326530612
4503.53141	0.327001357
4501.6027	0.326558266
4499.674	0.325675676
4497.74529	0.325236167
4495.81658	0.325706595
4493.88787	0.325268817
4491.95917	0.325737265
4490.03046	0.325301205
4488.10175	0.32576769
4486.17304	0.326666667
4484.24434	0.325797872
4482.31563	0.325365206
4480.38692	0.325827815
4478.45822	0.324966975
4476.52951	0.32585752
4474.6008	0.325
4472.67209	0.325886991
4470.74339	0.325032765
4468.81468	0.325490196
4466.88597	0.325065274
4464.95727	0.32421875
4463.02856	0.323797139
4461.09985	0.324254215
4459.17114	0.325129534
4457.24244	0.324289406
4455.31373	0.32516129
4453.38502	0.324324324
4451.45631	0.323907455
4449.52761	0.324358974
4447.5989	0.323529412
4445.67019	0.324393359
4443.74149	0.324840764
4441.81278	0.324427481
4439.88407	0.323604061
4437.95536	0.323193916
4436.02666	0.323640961
4434.09795	0.322824716
4432.16924	0.323677582
4430.24053	0.322864322
4428.31183	0.323308271
4426.38312	0.32290363
4424.45441	0.323345818
4422.52571	0.322942643
4420.597	0.322139303
4418.66829	0.322981366
4416.73958	0.323420074
4414.81088	0.323856613
4412.88217	0.323057953
4410.95346	0.322263223
4409.02476	0.321867322
4407.09605	0.322303922
4405.16734	0.323133415
4403.23863	0.322344322
4401.30993	0.323170732
4399.38122	0.322384428
4397.45251	0.321601942
4395.5238	0.322424242
4393.5951	0.321644498
4391.66639	0.322463768
4389.73768	0.321686747
4387.80898	0.322115385
4385.88027	0.321728691
4383.95156	0.322155689
4382.02285	0.321385902
4380.09415	0.321002387
4378.16544	0.321428571
4376.23673	0.322235434
4374.30802	0.321470937
4372.37932	0.320710059
4370.45061	0.321133412
4368.5219	0.320376914
4366.5932	0.321176471
4364.66449	0.320422535
4362.73578	0.320843091
4360.80707	0.320093458
4358.87837	0.319347319
4356.94966	0.319767442
4355.02095	0.320557491
4353.09225	0.3198146
4351.16354	0.320231214
4349.23483	0.319861432
4347.30612	0.320276498
4345.37742	0.31990794
4343.44871	0.32032147
4341.52	0.319587629
4339.59129	0.32
4337.66259	0.319270239
4335.73388	0.320045558
4333.80517	0.319318182
4331.87647	0.319727891
4329.94776	0.319004525
4328.01905	0.318644068
4326.09034	0.319052988
4324.16164	0.318335208
4322.23293	0.318742985
4320.30422	0.319506726
4318.37551	0.318791946
4316.44681	0.319196429
4314.5181	0.318485523
4312.58939	0.318888889
4310.66069	0.318181818
4308.73198	0.317829457
4306.80327	0.318232044
4304.87456	0.318632856
4302.94586	0.317931793
4301.01715	0.318681319
4299.08844	0.317982456
4297.15974	0.318380744
4295.23103	0.31768559
4293.30232	0.318082789
4291.37361	0.317391304
4289.44491	0.318132465
4287.5162	0.318526544
4285.58749	0.317837838
4283.65878	0.317152104
4281.73008	0.317887931
4279.80137	0.317204301
4277.87266	0.317596567
4275.94396	0.316916488
4274.01525	0.317307692
4272.08654	0.31663113
4270.15783	0.315957447
4268.22913	0.316684378
4266.30042	0.317073171
4264.37171	0.316402116
4262.443	0.316789863
4260.5143	0.316122234
4258.58559	0.316508938
4256.65688	0.315844701
4254.72818	0.315183246
4252.79947	0.315569488
4250.87076	0.316283925
4248.94205	0.316666667
4247.01335	0.316337149
4245.08464	0.316718588
4243.15593	0.316062176
4241.22723	0.316442606
4239.29852	0.315463918
4237.36981	0.314814815
4235.4411	0.315519013
4233.5124	0.314871795
4231.58369	0.315250768
4229.65498	0.314606742
4227.72627	0.314984709
4225.79757	0.314343845
4223.86886	0.314720812
4221.94015	0.31408308
4220.01145	0.314777328
4218.08274	0.315151515
4216.15403	0.314516129
4214.22532	0.3138833
4212.29662	0.314257028
4210.36791	0.313627255
4208.4392	0.314314314
4206.51049	0.313373253
4204.58179	0.31374502
4202.65308	0.314115308
4200.72437	0.313492063
4198.79567	0.313861386
4196.86696	0.313241107
4194.93825	0.313609467
4193.00954	0.312992126
4191.08084	0.31366765
4189.15213	0.314033366
4187.22342	0.313418217
4185.29472	0.313782991
4183.36601	0.314146341
4181.4373	0.313840156
4179.50859	0.31292517
4177.57989	0.31328807
4175.65118	0.31268151
4173.72247	0.312077295
4171.79376	0.31243973
4169.86506	0.31280077
4167.93635	0.312199808
4166.00764	0.312260536
4164.07894	0.31166348
4162.15023	0.312320917
4160.22152	0.312678742
4158.29281	0.31208373
4156.36411	0.312440646
4154.4354	0.311848341
4152.50669	0.312204352
4150.57798	0.311614731
4148.64928	0.31196984
4146.72057	0.311382879
4144.79186	0.311444653
4142.86316	0.310861423
4140.93445	0.310280374
4139.00574	0.310634328
4137.07703	0.310055866
4135.14833	0.310408922
4133.21962	0.309833024
4131.29091	0.310185185
4129.36221	0.310823312
4127.4335	0.310249307
4125.50479	0.310599078
4123.57608	0.309742647
4121.64738	0.310091743
4119.71867	0.30952381
4117.78996	0.309872029
4115.86125	0.310218978
4113.93255	0.309653916
4112.00384	0.309090909
4110.07513	0.309437387
4108.14643	0.309502262
4106.21772	0.308943089
4104.28901	0.309287647
4102.3603	0.309630963
4100.4316	0.309074573
4098.50289	0.30941704
4096.57418	0.308863026
4094.64547	0.309204647
4092.71677	0.308652988
4090.78806	0.308993767
4088.85935	0.308444444
4086.93065	0.308510638
4085.00194	0.307964602
4083.07323	0.308303887
4081.14452	0.307760141
4079.21582	0.308098592
4077.28711	0.308435852
4075.3584	0.307894737
4073.4297	0.308231173
4071.50099	0.307692308
4069.57228	0.308027923
4067.64357	0.307223673
4065.71487	0.307558645
4063.78616	0.307025152
4061.85745	0.307359307
4059.92874	0.307426598
4058.00004	0.306896552
4056.07133	0.307228916
4054.14262	0.306437768
4052.21392	0.306174957
4050.28521	0.306506849
4048.3565	0.305982906
4046.42779	0.306313993
4044.49909	0.306382979
4042.57038	0.305862362
4040.64167	0.306191688
4038.71296	0.305673158
4036.78426	0.305743243
4034.85555	0.306070826
4032.92684	0.305555556
4030.99814	0.305882353
4029.06943	0.30511316
4027.14072	0.305439331
4025.21201	0.304928989
4023.28331	0.305254379
4021.3546	0.305324459
4019.42589	0.304817276
4017.49719	0.305140962
4015.56848	0.304635762
4013.63977	0.304132231
4011.71106	0.304204452
4009.78236	0.303703704
4007.85365	0.304026294
4005.92494	0.304098361
4003.99623	0.303600655
4002.06753	0.303921569
4000.13882	0.303178484
3998.21011	0.303498779
3996.28141	0.303818034
3994.3527	0.303325223
3992.42399	0.302834008
3990.49528	0.303152789
3988.56658	0.302663438
3986.63787	0.30273752
3984.70916	0.303054662
3982.78045	0.303127506
3980.85175	0.302642114
3978.92304	0.302957634
3976.99433	0.302474062
3975.06563	0.302788845
3973.13692	0.302861685
3971.20821	0.302380952
3969.2795	0.301662708
3967.3508	0.301976285
3965.42209	0.302288871
3963.49338	0.301812451
3961.56468	0.301886792
3959.63597	0.301412873
3957.70726	0.301724138
3955.77855	0.301016419
3953.84985	0.301327088
3951.92114	0.301636789
3949.99243	0.301167315
3948.06372	0.301476301
3946.13502	0.300775194
3944.20631	0.300309598
3942.2776	0.3003861
3940.3489	0.30046225
3938.42019	0.300538048
3936.49148	0.300076746
3934.56277	0.300613497
3932.63407	0.300153139
3930.70536	0.300229183
3928.77665	0.299771167
3926.84794	0.299847793
3924.91924	0.299392097
3922.99053	0.29969651
3921.06182	0.299242424
3919.13312	0.299546142
3917.20441	0.299093656
3915.2757	0.298945783
3913.34699	0.29954955
3911.41829	0.298876404
3909.48958	0.299177263
3907.56087	0.298429319
3905.63217	0.297904192
3903.70346	0.297681376
3901.77475	0.29798357
3899.84604	0.297840655
3897.91734	0.298219585
3895.98863	0.298076923
3894.05992	0.297636632
3892.13121	0.29719764
3890.20251	0.297496318
3888.2738	0.297058824
3886.34509	0.296840558
3884.41639	0.296920821
3882.48768	0.297000732
3880.55897	0.297080292
3878.63026	0.296943231
3876.70156	0.297022513
3874.77285	0.296806967
3872.84414	0.296806967
3870.91543	0.296591733
3868.98673	0.296671491
3867.05802	0.296536797
3865.12931	0.295896328
3863.20061	0.295977011
3861.2719	0.295845272
3859.34319	0.295925661
3857.41448	0.295422031
3855.48578	0.294835007
3853.55707	0.294623656
3851.62836	0.295081967
3849.69966	0.295535082
3847.77095	0.29519774
3845.84224	0.294989414
3843.91353	0.294781382
3841.98483	0.294573643
3840.05612	0.294366197
3838.12741	0.294655415
3836.1987	0.294530154
3834.27	0.294405594
3832.34129	0.29448709
3830.41258	0.294363257
3828.48388	0.294444444
3826.55517	0.294525295
3824.62646	0.294525295
3822.69775	0.293832294
3820.76905	0.293425606
3818.84034	0.293305728
3816.91163	0.29338843
3814.98292	0.29375429
3813.05422	0.294117647
3811.12551	0.293515358
3809.1968	0.293515358
3807.2681	0.293115201
3805.33939	0.292716133
3803.41068	0.292517007
3801.48197	0.292798913
3799.55327	0.292682927
3797.62456	0.292567568
3795.69585	0.29245283
3793.76715	0.293010753
3791.83844	0.292895442
3789.90973	0.292307692
3787.98102	0.291917168
3786.05232	0.291527685
3784.12361	0.291611185
3782.1949	0.291888298
3780.26619	0.291694352
3778.33749	0.29158383
3776.40878	0.291473893
3774.48007	0.291556728
3772.55137	0.290705339
3770.62266	0.290513834
3768.69395	0.290598291
3766.76524	0.290682415
3764.83654	0.290766208
3762.90783	0.290196078
3760.97912	0.290469974
3759.05041	0.290091265
3757.12171	0.290175667
3755.193	0.289986996
3753.26429	0.289713542
3751.33559	0.289713542
3749.40688	0.289798571
3747.47817	0.28923476
3745.54946	0.288586252
3743.62076	0.288299935
3741.69205	0.288745981
3739.76334	0.288646568
3737.83464	0.288189987
3735.90593	0.288005131
3733.97722	0.287907869
3732.04851	0.288081581
3730.11981	0.288253968
3728.1911	0.28833967
3726.26239	0.287974684
3724.33368	0.287428932
3722.40498	0.287515763
3720.47627	0.288050314
3718.54756	0.287327478
3716.61886	0.287593985
3714.69015	0.287593985
3712.76144	0.286967419
3710.83273	0.287054409
3708.90403	0.287227414
3706.97532	0.286956522
3705.04661	0.287220844
3703.1179	0.286864932
3701.1892	0.287128713
3699.26049	0.286859963
3697.33178	0.286330049
3695.40308	0.286592866
3693.47437	0.286592866
3691.54566	0.28597786
3689.61695	0.28580209
3687.68825	0.285539216
3685.75954	0.285714286
3683.83083	0.286062082
3681.90213	0.285714286
3679.97342	0.285106383
3678.04471	0.285279805
3676.116	0.284844796
3674.1873	0.284933171
3672.25859	0.284848485
3670.32988	0.284936479
3668.40117	0.284680338
3666.47247	0.284684685
3664.54376	0.284601558
3662.61505	0.284260922
3660.68635	0.2839211
3658.75764	0.2839211
3656.82893	0.283751493
3654.90022	0.283840191
3652.97152	0.283243888
3651.04281	0.282985075
3649.1141	0.282816229
3647.18539	0.282401902
3645.25669	0.283175355
3643.32798	0.282929711
3641.39927	0.283018868
3639.47057	0.282685512
3637.54186	0.282352941
3635.61315	0.282021152
3633.68444	0.282021152
3631.75574	0.281599059
3629.82703	0.281341966
3627.89832	0.281103286
3625.96961	0.281871345
3624.04091	0.281796966
3622.1122	0.281213536
3620.18349	0.281213536
3618.25479	0.280885781
3616.32608	0.280977312
3614.39737	0.280650784
3612.46866	0.280487805
3610.53996	0.280325015
3608.61125	0.280417149
3606.68254	0.280346821
3604.75384	0.280276817
3602.82513	0.280529954
3600.89642	0.280207135
3598.96771	0.279885057
3597.03901	0.27956372
3595.1103	0.279816514
3593.18159	0.279495991
3591.25288	0.279176201
3589.32418	0.279176201
3587.39547	0.278857143
3585.46676	0.278791334
3583.53806	0.279294653
3581.60935	0.278977273
3579.68064	0.278660613
3577.75193	0.278344671
3575.82323	0.278438031
3573.89452	0.278688525
3571.96581	0.278531073
3570.0371	0.277966102
3568.1084	0.27740113
3566.17969	0.27749577
3564.25098	0.277433877
3562.32228	0.27752809
3560.39357	0.277621985
3558.46486	0.277310924
3556.53615	0.277560157
3554.60745	0.277404922
3552.67874	0.277094972
3550.75003	0.276785714
3548.82133	0.27703456
3546.89262	0.276880223
3544.96391	0.276974416
3543.0352	0.276513048
3541.1065	0.276206323
3539.17779	0.276454294
3537.24908	0.276148312
3535.32037	0.276243094
3533.39167	0.27593819
3531.46296	0.27578599
3529.53425	0.275633958
3527.60555	0.275482094
3525.67684	0.275178866
3523.74813	0.275426058
3521.81942	0.274972558
3519.89072	0.275219298
3517.96201	0.274917853
3516.0333	0.274617068
3514.10459	0.274713271
3512.17589	0.27441353
3510.24718	0.274659401
3508.31847	0.27436037
3506.38977	0.27406199
3504.46106	0.273913043
3502.53235	0.273467173
3500.60364	0.273712737
3498.67494	0.273268398
3496.74623	0.273513514
3494.81752	0.273218143
3492.88882	0.273462783
3490.96011	0.273168103
3489.0314	0.272874058
3487.10269	0.27311828
3485.17399	0.272678476
3483.24528	0.272922252
3481.31657	0.272629888
3479.38786	0.272727273
3477.45916	0.272435897
3475.53045	0.272145144
3473.60174	0.272242941
3471.67304	0.271953167
3469.74433	0.27205101
3467.81562	0.271762208
3465.88691	0.271330154
3463.95821	0.27104288
3462.0295	0.271141649
3460.10079	0.271240106
3458.17208	0.270954138
3456.24338	0.270526316
3454.31467	0.270625328
3452.38596	0.270341207
3450.45726	0.270582066
3448.52855	0.270298586
3446.59984	0.27039749
3444.67113	0.270114943
3442.74243	0.270213876
3440.81372	0.2703125
3438.88501	0.269890796
3436.95631	0.269989616
3435.0276	0.269569725
3433.09889	0.269151139
3431.17018	0.269250646
3429.24148	0.269349845
3427.31277	0.269448738
3425.38406	0.269032922
3423.45535	0.268618387
3421.52665	0.268717949
3419.59794	0.268305172
3417.66923	0.268267757
3415.74053	0.268367347
3413.81182	0.267957208
3411.88311	0.268193384
3409.9544	0.268292683
3408.0257	0.268020305
3406.09699	0.267612772
3404.16828	0.267712551
3402.23957	0.267812026
3400.31087	0.26740666
3398.38216	0.267506297
3396.45345	0.267471091
3394.52475	0.267570281
3392.59604	0.267034068
3390.66733	0.267
3388.73862	0.266467066
3386.80992	0.266567015
3384.88121	0.266666667
3382.9525	0.26626925
3381.0238	0.266236986
3379.09509	0.266336634
3377.16638	0.265941671
3375.23767	0.266041461
3373.30897	0.265517241
3371.38026	0.265617314
3369.45155	0.265717092
3367.52284	0.265816577
3365.59414	0.265426053
3363.66543	0.265525672
3361.73672	0.265007321
3359.80802	0.264619883
3357.87931	0.264720195
3355.9506	0.264334305
3354.02189	0.264306499
3352.09319	0.26440678
3350.16448	0.26450677
3348.23577	0.26460647
3346.30706	0.264223722
3344.37836	0.263715111
3342.44965	0.263815473
3340.52094	0.263435701
3338.59224	0.263536176
3336.66353	0.263636364
3334.73482	0.26313276
3332.80611	0.26323319
3330.87741	0.262857143
3328.9487	0.2628327
3327.01999	0.262458472
3325.09129	0.262559242
3323.16258	0.262659726
3321.23387	0.262163439
3319.30516	0.262264151
3317.37646	0.262364578
3315.44775	0.261994356
3313.51904	0.261971831
3311.59033	0.261949391
3309.66163	0.261927035
3307.73292	0.261560019
3305.80421	0.261660448
3303.87551	0.261638734
3301.9468	0.261152416
3300.01809	0.261131725
3298.08938	0.260768874
3296.16068	0.26074896
3294.23197	0.260849492
3292.30326	0.260368664
3290.37455	0.260469397
3288.44585	0.260450161
3286.51714	0.260550459
3284.58843	0.26007326
3282.65973	0.260173754
3280.73102	0.26015518
3278.80231	0.259681093
3276.8736	0.259663483
3274.9449	0.259645937
3273.01619	0.259292838
3271.08748	0.259276018
3269.15878	0.259259259
3267.23007	0.258908435
3265.30136	0.258892391
3263.37265	0.258992806
3261.44395	0.258527828
3259.51524	0.258512545
3257.58653	0.258165548
3255.65782	0.25815096
3253.72912	0.258251561
3251.80041	0.25779163
3249.8717	0.257777778
3247.943	0.257878384
3246.01429	0.257535461
3244.08558	0.257522124
3242.15687	0.257067138
3240.22817	0.257168064
3238.29946	0.257155438
3236.37075	0.257142857
3234.44204	0.256691531
3232.51334	0.256679807
3230.58463	0.256668124
3228.65592	0.256768559
3226.72722	0.256756757
3224.79851	0.256309835
3222.8698	0.256410256
3220.94109	0.255965293
3219.01239	0.255954959
3217.08368	0.255944661
3215.15497	0.255934398
3213.22627	0.255603448
3211.29756	0.255593804
3209.36885	0.255154639
3207.44014	0.255036434
3205.51144	0.255136986
3203.58273	0.255128205
3201.65402	0.254692833
3199.72531	0.254793353
3197.79661	0.254785198
3195.8679	0.254352442
3193.93919	0.254345061
3192.01049	0.254337706
3190.08178	0.254330376
3188.15307	0.254008439
3186.22436	0.254001685
3184.29566	0.253994954
3182.36695	0.253988245
3180.43824	0.253562448
3178.50953	0.253556485
3176.58083	0.253550543
3174.65212	0.253127606
3172.72341	0.253122398
3170.79471	0.252701579
3168.866	0.252801993
3166.93729	0.252382926
3165.00858	0.252378982
3163.07988	0.252375052
3161.15117	0.251958763
3159.22246	0.251955537
3157.29376	0.251952322
3155.36505	0.251949118
3153.43634	0.251536256
3151.50763	0.251533742
3149.57893	0.251531237
3147.65022	0.251631321
3145.72151	0.251221498
3143.7928	0.251219512
3141.8641	0.251217532
3139.93539	0.251113811
3138.00668	0.250809061
3136.07798	0.250807754
3134.14927	0.250806452
3132.22056	0.250805153
3130.29185	0.250301326
3128.36315	0.250300842
3126.43444	0.25
3124.50573	0.25
3122.57702	0.25
3120.64832	0.25
3118.71961	0.249900517
3116.7909	0.249503377
3114.8622	0.249504165
3112.93349	0.24950495
3111.00478	0.24911032
3109.07607	0.249111725
3107.14737	0.249014972
3105.21866	0.248623131
3103.28995	0.248722986
3101.36125	0.248332679
3099.43254	0.248335292
3097.50383	0.248240813
3095.57512	0.24824356
3093.64642	0.248246298
3091.71771	0.247859922
3089.789	0.247474747
3087.86029	0.247382706
3085.93159	0.24738676
3084.00288	0.247099768
3082.07417	0.247104247
3080.14547	0.247108712
3078.21676	0.247018084
3076.28805	0.247022666
3074.35934	0.246932515
3072.43064	0.246554364
3070.50193	0.246559633
3068.57322	0.24665903
3066.64451	0.246282882
3064.71581	0.246288542
3062.7871	0.246294185
3060.85839	0.245827011
3058.92969	0.245833333
3057.00098	0.245839637
3055.07227	0.245753114
3053.14356	0.245382586
3051.21486	0.245013173
3049.28615	0.245112782
3047.35744	0.24512012
3045.42874	0.245127436
3043.50003	0.245134731
3041.57132	0.244768311
3039.64261	0.244776119
3037.71391	0.244692737
3035.7852	0.244328747
3033.85649	0.24433717
3031.92778	0.244065282
3029.99908	0.244074074
3028.07037	0.243713018
3026.14166	0.243722304
3024.21296	0.243362832
3022.28425	0.243462247
3020.35554	0.243471865
3018.42683	0.243114212
3016.49813	0.2432135
3014.56942	0.242857143
3012.64071	0.242867593
3010.712	0.242966752
3008.7833	0.24270073
3006.85459	0.242346939
3004.92588	0.242082272
3002.99718	0.241818182
3001.06847	0.241917908
2999.13976	0.241654572
2997.21105	0.241841914
2995.28235	0.241666667
2993.35364	0.241853729
2991.42493	0.241678726
2989.49623	0.24159132
2987.56752	0.241142444
2985.63881	0.241142444
2983.7101	0.241142444
2981.7814	0.240780911
2979.85269	0.240593343
2977.92398	0.240405503
2975.99527	0.240391588
2974.06657	0.240101707
2972.13786	0.240262104
2970.20915	0.240145985
2968.28045	0.240029272
2966.35174	0.240102639
2964.42303	0.239911959
2962.49432	0.23973607
2960.56562	0.239941478
2958.63691	0.239606127
2956.7082	0.239462209
2954.77949	0.239232718
2952.85079	0.239091237
2950.92208	0.239036664
2948.99337	0.238795267
2947.06467	0.238725841
2945.13596	0.238469789
2943.20725	0.238299393
2941.27854	0.238299393
2939.34984	0.237942122
2937.42113	0.238027162
2935.49242	0.237669764
2933.56372	0.237584852
2931.63501	0.2375
2929.7063	0.237602569
2927.77759	0.237263983
2925.84889	0.237197724
2923.92018	0.237318198
2921.99147	0.237000354
2920.06276	0.236953456
2918.13406	0.236823612
2916.20535	0.236777583
2914.27664	0.236731844
2912.34794	0.236686391
2910.41923	0.236376258
2908.49052	0.236231382
2906.56181	0.236005529
2904.63311	0.235862069
2902.7044	0.235982112
2900.77569	0.235758408
2898.84698	0.235535775
2896.91828	0.235394602
2894.98957	0.235254006
2893.06086	0.235113984
2891.13216	0.235054348
2889.20345	0.234994914
2887.27474	0.23493568
2885.34603	0.235035509
2883.41733	0.234797297
2881.48862	0.234559568
2879.55991	0.234401349
2877.63121	0.23432232
2875.7025	0.23416442
2873.77379	0.23392797
2871.84508	0.233870968
2869.91638	0.233814156
2867.98767	0.233757535
2866.05896	0.233366767
2864.13025	0.233388982
2862.20155	0.233155437
2860.27284	0.233177881
2858.34413	0.232945092
2856.41543	0.232890365
2854.48672	0.232835821
2852.55801	0.232704403
2850.6293	0.232419941
2848.7006	0.23238973
2846.77189	0.232359698
2844.84318	0.232002618
2842.91447	0.232049608
2840.98577	0.231846304
2839.05706	0.231643925
2837.12835	0.231442464
2835.19965	0.231316726
2833.27094	0.231589147
2831.34223	0.231215737
2829.41352	0.231165486
2827.48482	0.231115397
2825.55611	0.230744544
2823.6274	0.23069529
2821.6987	0.23072
2819.76999	0.230425056
2817.84128	0.230376516
2815.91257	0.230009557
2813.98387	0.230034998
2812.05516	0.229987294
2810.12645	0.229695431
2808.19774	0.229721166
2806.26904	0.22943038
2804.34033	0.229456384
2802.41162	0.229482323
2800.48292	0.229192938
2798.55421	0.229146994
2796.6255	0.228858849
2794.69679	0.228813559
2792.76809	0.228840125
2790.83938	0.228553538
2788.91067	0.228580363
2786.98196	0.228535748
2785.05326	0.228250702
2783.12455	0.228277795
2781.19584	0.227993779
2779.26714	0.227639752
2777.33843	0.227738132
2775.40972	0.227695167
2773.48101	0.227413366
2771.55231	0.227441286
2769.6236	0.227160494
2767.69489	0.227188656
2765.76619	0.226908867
2763.83748	0.226937269
2761.90877	0.226658477
2759.98006	0.226687117
2758.05136	0.226409314
2756.12265	0.226438188
2754.19394	0.226466993
2752.26523	0.226190476
2750.33653	0.226219512
2748.40782	0.225943971
2746.47911	0.225973236
2744.55041	0.225698663
2742.6217	0.225424757
2740.69299	0.225454545
2738.76428	0.225181598
2736.83558	0.225211608
2734.90687	0.224939614
2732.97816	0.224969843
2731.04945	0.224698795
2729.12075	0.224729242
2727.19204	0.224759615
2725.26333	0.224489796
2723.33463	0.224153431
2721.40592	0.224184376
2719.47721	0.223916293
2717.5485	0.22364885
2715.6198	0.223680286
2713.69109	0.223413762
2711.76238	0.223445403
2709.83368	0.223179792
2707.90497	0.223211636
2705.97626	0.222946932
2704.04755	0.222978975
2702.11885	0.223010944
2700.19014	0.223042836
2698.26143	0.222779581
2696.33272	0.222516947
2694.40402	0.222254931
2692.47531	0.222287562
2690.5466	0.222320117
2688.6179	0.222059255
2686.68919	0.222092001
2684.76048	0.221832016
2682.83177	0.221800117
2680.90307	0.221541156
2678.97436	0.221574344
2677.04565	0.221316249
2675.11694	0.221349622
2673.18824	0.221092388
2671.25953	0.220835752
2669.33082	0.220869565
2667.40212	0.220903301
2665.47341	0.2207116
2663.5447	0.220392837
2661.61599	0.220138488
2659.68729	0.220172911
2657.75858	0.219919401
2655.82987	0.219953997
2653.90117	0.219701321
2651.97246	0.219736087
2650.04375	0.219770774
2648.11504	0.219519176
2646.18634	0.219491283
2644.25763	0.219240651
2642.32892	0.219275734
2640.40021	0.219025919
2638.47151	0.218776671
2636.5428	0.21887436
2634.61409	0.218625781
2632.68539	0.218661373
2630.75668	0.218413598
2628.82797	0.218166384
2626.89926	0.217919729
2624.97056	0.217955957
2623.04185	0.217930646
2621.11314	0.217685159
2619.18443	0.217440225
2617.25573	0.217476819
2615.32702	0.217232669
2613.39831	0.217269414
2611.46961	0.217245241
2609.5409	0.217062937
2607.61219	0.217099749
2605.68348	0.216796875
2603.75478	0.216833891
2601.82607	0.216592428
2599.89736	0.216629588
2597.96865	0.216449014
2596.03995	0.216208715
2594.11124	0.216246188
2592.18253	0.215946844
2590.25383	0.215984513
2588.32512	0.215745856
2586.39641	0.215783664
2584.4677	0.215545755
2582.539	0.21552436
2580.61029	0.215287325
2578.68158	0.21505081
2576.75288	0.215089163
2574.82417	0.214853384
2572.89546	0.21489187
2570.96675	0.214871514
2569.03805	0.21463681
2567.10934	0.214402619
2565.18063	0.214168937
2563.25192	0.214207948
2561.32322	0.213974986
2559.39451	0.214014123
2557.4658	0.214053174
2555.5371	0.213763208
2553.60839	0.2135318
2551.67968	0.213300892
2549.75097	0.213070483
2547.82227	0.213052859
2545.89356	0.213092672
2543.96485	0.2131324
2542.03614	0.212903226
2540.10744	0.212943072
2538.17873	0.212714592
2536.25002	0.212486602
2534.32132	0.212469896
2532.39261	0.212242716
2530.4639	0.212226375
2528.53519	0.212
2526.60649	0.21204049
2524.67778	0.211814795
2522.74907	0.211855396
2520.82037	0.211630377
2518.89166	0.211671088
2516.96295	0.211390728
2515.03424	0.211166975
2513.10554	0.211208036
2511.17683	0.210984949
2509.24812	0.210762332
2507.31941	0.210803689
2505.39071	0.210581732
2503.462	0.210567823
2501.53329	0.210346639
2499.60459	0.210388248
2497.67588	0.210112654
2495.74717	0.209892698
2493.81846	0.209934641
2491.88976	0.209976495
2489.96105	0.209963485
2488.03234	0.209744659
2486.10363	0.209786569
2484.17493	0.209568383
2482.24622	0.209296287
2480.31751	0.209338521
2478.38881	0.209121534
2476.4601	0.208904996
2474.53139	0.208634953
2472.60268	0.208677686
2470.67398	0.208408563
2468.74527	0.20845143
2466.81656	0.208236808
2464.88786	0.208022628
2462.95915	0.208065759
2461.03044	0.208055413
2459.10173	0.207842132
2457.17303	0.207832096
2455.24432	0.207619535
2453.31561	0.207407407
2451.3869	0.20745088
2449.4582	0.207186544
2447.52949	0.20697556
2445.60078	0.206765005
2443.67208	0.206756414
2441.74337	0.206546562
2439.81466	0.206538267
2437.88595	0.206329114
2435.95725	0.206373293
2434.02854	0.206417383
2432.09983	0.206156952
2430.17112	0.20594908
2428.24242	0.205689829
2426.31371	0.205734406
2424.385	0.205527638
2422.4563	0.205520703
2420.52759	0.205314615
2418.59888	0.205057586
2416.67017	0.204852426
2414.74147	0.204897551
2412.81276	0.20489144
2410.88405	0.204936425
2408.95535	0.204732254
2407.02664	0.20452849
2405.09793	0.204522863
2403.16922	0.204319762
2401.24052	0.204314406
2399.31181	0.204359673
2397.3831	0.204157387
2395.45439	0.203905091
2393.52569	0.203703704
2391.59698	0.203502713
2389.66827	0.203548546
2387.73957	0.203544179
2385.81086	0.203343988
2383.88215	0.203339882
2381.95344	0.203140334
2380.02474	0.202941176
2378.09603	0.202937576
2376.16732	0.202739056
2374.23861	0.202540924
2372.30991	0.202343178
2370.3812	0.202389661
2368.45249	0.202192448
2366.52379	0.201995619
2364.59508	0.201750122
2362.66637	0.201796989
2360.73766	0.20179481
2358.80896	0.201550388
2356.88025	0.201597289
2354.95154	0.201353638
2353.02284	0.201352004
2351.09413	0.201157742
2349.16542	0.201156348
2347.23671	0.200962696
2345.30801	0.200961538
2343.3793	0.200816719
2341.45059	0.20062395
2339.52188	0.200431551
2337.59318	0.200191571
2335.66447	0.200191342
2333.73576	0.199952222
2331.80706	0.2
2329.87835	0.2
2327.94964	0.199809478
2326.02093	0.199809705
2324.09223	0.199572345
2322.16352	0.199335548
2320.23481	0.199383594
2318.3061	0.199147525
2316.3774	0.199148534
2314.44869	0.199149539
2312.51998	0.199197545
2310.59128	0.198962753
2308.66257	0.198775318
2306.73386	0.19854152
2304.80515	0.198589894
2302.87645	0.198356808
2300.94774	0.198405253
2299.01903	0.198172874
2297.09033	0.197987363
2295.16162	0.197989715
2293.23291	0.197804764
2291.3042	0.197620159
2289.3755	0.197435897
2287.44679	0.19725198
2285.51808	0.19730107
2283.58937	0.197304206
2281.66067	0.197075209
2279.73196	0.197124304
2277.80325	0.196941613
2275.87455	0.196713724
2273.94584	0.196763006
2272.01713	0.196581197
2270.08842	0.196354407
2268.15972	0.196403873
2266.23101	0.196222939
2264.3023	0.195997239
2262.37359	0.196046886
2260.44489	0.195821855
2258.51618	0.195642202
2256.58747	0.195647194
2254.65877	0.195423341
2252.73006	0.1952
2250.80135	0.195250057
2248.87264	0.195255474
2246.94394	0.195260879
2245.01523	0.195038689
2243.08652	0.194817004
2241.15782	0.194822888
2239.22911	0.194601951
2237.3004	0.194563986
2235.37169	0.194343891
2233.44299	0.194124294
2231.51428	0.194087114
2229.58557	0.194093778
2227.65686	0.193875253
2225.72816	0.193882141
2223.79945	0.193664345
2221.87074	0.193671454
2219.94204	0.193454382
2218.01333	0.193461711
2216.08462	0.193245359
2214.15591	0.193209739
2212.22721	0.192994199
2210.2985	0.193002006
2208.36979	0.192787177
2206.44108	0.192572826
2204.51238	0.192623861
2202.58367	0.192632046
2200.65496	0.192461197
2198.72626	0.192248062
2196.79755	0.192035398
2194.86884	0.192086649
2192.94013	0.191874586
2191.01143	0.191662991
2189.08272	0.191451862
2187.15401	0.191503412
2185.22531	0.191554871
2183.2966	0.191344464
2181.36789	0.191176471
2179.43918	0.191186143
2177.51048	0.19101862
2175.58177	0.191028446
2173.65306	0.190819672
2171.72435	0.190829694
2169.79565	0.190663176
2167.86694	0.190496949
2165.93823	0.190507294
2164.00953	0.190341527
2162.08082	0.190134724
2160.15211	0.190145431
2158.2234	0.189980481
2156.2947	0.190032503
2154.36599	0.189867937
2152.43728	0.18966263
2150.50857	0.189755781
2148.57987	0.189457766
2146.65116	0.189498704
2144.72245	0.189241737
2142.79375	0.189212513
2140.86504	0.189020452
2138.93633	0.188869789
2137.00762	0.188881734
2135.07892	0.188893654
2133.15021	0.188731791
2131.2215	0.188743848
2129.2928	0.188501817
2127.36409	0.188300598
2125.43538	0.188099808
2123.50667	0.188152568
2121.57797	0.18795232
2119.64926	0.187752498
2117.72055	0.187805396
2115.79184	0.187818336
2113.86314	0.18761925
2111.93443	0.187420584
2110.00572	0.18743389
2108.07702	0.187196281
2106.14831	0.187209793
2104.2196	0.187012439
2102.29089	0.186815501
2100.36219	0.186618977
2098.43348	0.186633039
2096.50477	0.186437119
2094.57606	0.186451342
2092.64736	0.186256023
2090.71865	0.186270406
2088.78994	0.186245819
2086.86124	0.186051368
2084.93253	0.186027112
2083.00382	0.186041667
2081.07511	0.185809405
2079.14641	0.185616296
2077.2177	0.185631229
2075.28899	0.185400249
2073.36029	0.185415372
2071.43158	0.18522351
2069.50287	0.185070306
2067.57416	0.184955569
2065.64546	0.184971098
2063.71675	0.184704185
2061.78804	0.184643886
2059.85933	0.184621711
2057.93063	0.184599589
2056.00192	0.184410256
2054.07321	0.184388445
2052.14451	0.184199754
2050.2158	0.184215907
2048.28709	0.184232026
2046.35838	0.184044073
2044.42968	0.183856502
2042.50097	0.183872938
2040.57226	0.183685924
2038.64355	0.183665177
2036.71485	0.18347879
2034.78614	0.183458342
2032.85743	0.18334684
2030.92873	0.18327258
2029.00002	0.183161303
2027.07131	0.183104285
2025.1426	0.182808717
2023.2139	0.182789198
2021.28519	0.182605194
2019.35648	0.182458258
2017.42778	0.18227492
2015.49907	0.182292712
2013.57036	0.182109908
2011.64165	0.18212783
2009.71295	0.181945556
2007.78424	0.181963607
2005.85553	0.181781862
2003.92682	0.181600479
2001.99812	0.181655035
2000.06941	0.181474104
1998.1407	0.181293532
1996.212	0.181149334
1994.28329	0.181005365
1992.35458	0.180897538
1990.42587	0.180718111
1988.49717	0.180701407
1986.56846	0.180522565
1984.63975	0.180577532
1982.71104	0.180434783
1980.78234	0.180454097
1978.85363	0.180311699
1976.92492	0.1803311
1974.99622	0.180189051
1973.06751	0.180011804
1971.1388	0.179870258
1969.21009	0.179728933
1967.28139	0.179587831
1965.35268	0.179607843
1963.42397	0.179537436
1961.49527	0.179321169
1959.56656	0.179371316
1957.63785	0.179124975
1955.70914	0.179116152
1953.78044	0.179121951
1951.85173	0.179107386
1949.92302	0.178933022
1947.99431	0.178758996
1946.06561	0.178390983
1944.1369	0.178287046
1942.20819	0.178148651
1940.27949	0.178100775
1938.35078	0.178053029
1936.42207	0.178074246
1934.49336	0.17790226
1932.56466	0.177923582
1930.63595	0.177752072
1928.70724	0.177615103
1926.77853	0.177670837
1924.84983	0.177568295
1922.92112	0.177431757
1920.99241	0.177329491
1919.06371	0.17703533
1917.135	0.177057357
1915.20629	0.17697759
1913.27758	0.176931905
1911.34888	0.176830434
1909.42017	0.17669532
1907.49146	0.176526718
1905.56276	0.176324819
1903.63405	0.176156922
1901.70534	0.176022835
1899.77663	0.176079102
1897.84793	0.175945278
1895.91922	0.175845044
1893.99051	0.175711575
1892.0618	0.175767918
1890.1331	0.175667993
1888.20439	0.175501704
1886.27568	0.175302572
1884.34698	0.175292784
1882.41827	0.175160438
1880.48956	0.175216899
1878.56085	0.17508481
1876.63215	0.174952919
1874.70344	0.174821227
1872.77473	0.174722588
1870.84602	0.174534512
1868.91732	0.174313652
1866.98861	0.1742723
1865.0599	0.174353206
1863.1312	0.174344569
1861.20249	0.174181478
1859.27378	0.174051225
1857.34507	0.173888681
1855.41637	0.173726442
1853.48766	0.173750932
1851.55895	0.17380775
1849.63025	0.173743017
1847.70154	0.173556797
1845.77283	0.173435171
1843.84412	0.173306031
1841.91542	0.173169825
1839.98671	0.173034125
1838.058	0.172841793
1836.12929	0.172898926
1834.20059	0.17280296
1832.27188	0.172617946
1830.34317	0.172617946
1828.41447	0.17245841
1826.48576	0.172299169
1824.55705	0.172292935
1822.62834	0.172254974
1820.69964	0.172248804
1818.77093	0.172122104
1816.84222	0.172027201
1814.91351	0.171932403
1812.98481	0.171717172
1811.0561	0.171685641
1809.12739	0.171559633
1807.19869	0.171585701
1805.26998	0.171339564
1803.34127	0.171370968
1801.41256	0.171219065
1799.48386	0.171187683
1797.55515	0.171093607
1795.62644	0.170941737
1793.69774	0.170883755
1791.76903	0.170731707
1789.84032	0.170544056
1787.91161	0.170419184
1785.98291	0.170267301
1784.0542	0.170115363
1782.12549	0.170115363
1780.19678	0.170084218
1778.26808	0.170084218
1776.33937	0.16996337
1774.41066	0.169814781
1772.48196	0.169787078
1770.55325	0.169755919
1768.62454	0.169569203
1766.69583	0.16959707
1764.76713	0.169534969
1762.83842	0.169444953
1760.90971	0.169354839
1758.981	0.169202566
1757.0523	0.169143276
1755.12359	0.168962351
1753.19488	0.168967421
1751.26618	0.168665805
1749.33747	0.168545555
1747.40876	0.168454142
1745.48005	0.168424949
1743.55135	0.168272795
1741.62264	0.168337045
1739.69393	0.168493405
1737.76523	0.16827817
1735.83652	0.168219076
1733.90781	0.167971663
1731.9791	0.16784518
1730.0504	0.167749119
1728.12169	0.167777778
1726.19298	0.16768349
1724.26427	0.167651403
1722.33557	0.16746588
1720.40686	0.167281446
1718.47815	0.166943368
1716.54945	0.166912307
1714.62074	0.166942149
1712.69203	0.166788722
1710.76332	0.166788455
1708.83462	0.166757891
1706.90591	0.166636281
1704.9772	0.166484517
1703.04849	0.166272082
1701.11979	0.166150483
1699.19108	0.166090595
1697.26237	0.166031573
1695.33367	0.166153846
1693.40496	0.166215485
1691.47625	0.166066282
1689.54754	0.165976598
1687.61884	0.165676211
1685.69013	0.165524702
1683.76142	0.165344392
1681.83272	0.165226782
1679.90401	0.165259565
1677.9753	0.165229885
1676.04659	0.165109594
1674.11789	0.165079935
1672.18918	0.164841085
1670.26047	0.164691092
1668.33176	0.164693219
1666.40306	0.164606842
1664.47435	0.164398281
1662.54564	0.164398281
1660.61694	0.164280601
1658.68823	0.164400716
1656.75952	0.164128292
1654.83081	0.163969795
1652.90211	0.163786897
1650.9734	0.163822526
1649.04469	0.163796197
1647.11598	0.163646151
1645.18728	0.163620072
1643.25857	0.163506261
1641.32986	0.163389346
1639.40116	0.163298158
1637.47245	0.163203153
1635.54374	0.163082437
1633.61503	0.16317767
1631.68633	0.163064833
1629.75762	0.163035714
1627.82891	0.162915327
1625.90021	0.162794853
1623.9715	0.162645219
1622.04279	0.1625871
1620.11408	0.16235042
1618.18538	0.162229766
1616.25667	0.162200786
1614.32796	0.16235504
1612.39925	0.162181429
1610.47055	0.162181429
1608.54184	0.162003208
1606.61313	0.161945484
1604.68443	0.161887801
1602.75572	0.161830158
1600.82701	0.161772557
1598.8983	0.161686233
1596.9696	0.161628734
1595.04089	0.161542563
1593.11218	0.16142781
1591.18347	0.161433387
1589.25477	0.16126174
1587.32606	0.161296034
1585.39735	0.16115337
1583.46865	0.161010958
1581.53994	0.160897209
1579.61123	0.160868797
1577.68252	0.160748984
1575.75382	0.160635481
1573.82511	0.160556926
1571.8964	0.160415566
1569.96769	0.160415566
1568.03899	0.160218079
1566.11028	0.160168599
1564.18157	0.160084255
1562.25287	0.160077315
1560.32416	0.159795631
1558.39545	0.159675714
1556.46674	0.159606258
1554.53804	0.159656502
1552.60933	0.159755031
1550.68062	0.159615385
1548.75192	0.159587485
1546.82321	0.159468439
1544.8945	0.159194396
1542.96579	0.158947368
1541.03709	0.158855538
1539.10838	0.158927633
1537.17967	0.158979734
1535.25096	0.158960042
1533.32226	0.158876875
1531.39355	0.158710801
1529.46484	0.158774373
1527.53614	0.158683156
1525.60743	0.15844518
1523.67872	0.158289703
1521.75001	0.158133846
1519.82131	0.158225637
1517.8926	0.158234473
1515.96389	0.158096566
1514.03518	0.158013937
1512.10648	0.158069014
1510.17777	0.157738615
1508.24906	0.157609645
1506.32036	0.157499563
1504.39165	0.15755571
1502.46294	0.157574705
1500.53423	0.157455683
1498.60553	0.157446068
1496.67682	0.157299461
1494.74811	0.157162726
1492.81941	0.157162726
1490.8907	0.157006092
1488.96199	0.156886645
1487.03328	0.156896852
1485.10458	0.156706046
1483.17587	0.156651615
1481.24716	0.156505124
1479.31845	0.156467316
1477.38975	0.15636427
1475.46104	0.156195462
1473.53233	0.156146179
1471.60363	0.156053184
1469.67492	0.156025888
1467.74621	0.155960091
1465.8175	0.155800911
1463.8888	0.15585554
1461.96009	0.155707522
1460.03138	0.155481377
1458.10267	0.155336386
1456.17397	0.155309033
1454.24526	0.155278412
1452.31655	0.155154278
1450.38785	0.155099895
1448.45914	0.155072718
1446.53043	0.154964104
1444.60172	0.155003499
1442.67302	0.154895105
1440.74431	0.154949283
1438.8156	0.154640981
1436.8869	0.154480098
1434.95819	0.154547047
1433.02948	0.154559776
1431.10077	0.154559776
1429.17207	0.154384737
1427.24336	0.154209697
1425.31465	0.154115587
1423.38594	0.154102384
1421.45724	0.154021777
1419.52853	0.153940887
1417.59982	0.153967975
1415.67112	0.15403552
1413.74241	0.15406261
1411.8137	0.153819078
1409.88499	0.153778404
1407.95629	0.153737659
1406.02758	0.153520381
1404.09887	0.153452234
1402.17016	0.15338399
1400.24146	0.153342766
1398.31275	0.153247213
1396.38404	0.153070253
1394.45534	0.152961981
1392.52663	0.152949488
1390.59792	0.152868491
1388.66921	0.152772872
1386.74051	0.152799859
1384.8118	0.152718927
1382.88309	0.15263808
1380.95439	0.15258423
1379.02568	0.152557319
1377.09697	0.152407832
1375.16826	0.15246162
1373.23956	0.152434721
1371.31085	0.152380952
1369.38214	0.152150917
1367.45343	0.152124097
1365.52473	0.151974612
1363.59602	0.151648739
1361.66731	0.151568558
1359.73861	0.151787286
1357.8099	0.15180299
1355.88119	0.151722925
1353.95248	0.151669596
1352.02378	0.151589672
1350.09507	0.151307706
1348.16636	0.151403509
1346.23765	0.151323865
1344.30895	0.151244304
1342.38024	0.151042579
1340.45153	0.150867356
1338.52283	0.150814503
1336.59412	0.150857543
1334.66541	0.150699301
1332.7367	0.150742358
1330.808	0.150663408
1328.87929	0.15058454
1326.95058	0.150532008
1325.02188	0.150357579
1323.09317	0.15018315
1321.16446	0.150034892
1319.23575	0.14991274
1317.30705	0.149938907
1315.37834	0.149816658
1313.44963	0.149694323
1311.52092	0.149545772
1309.59222	0.149571903
1307.66351	0.149423279
1305.7348	0.149326805
1303.8061	0.149230231
1301.87739	0.149308594
1299.94868	0.149238045
1298.01997	0.148992112
1296.09127	0.148921242
1294.16256	0.148850272
1292.23385	0.148805341
1290.30514	0.148786493
1288.37644	0.148565393
1286.44773	0.148546256
1284.51902	0.148350679
1282.59032	0.148357471
1280.66161	0.14839052
1278.7329	0.148246546
1276.80419	0.14815472
1274.87549	0.148088889
1272.94678	0.148075552
1271.01807	0.147989276
1269.08937	0.147855733
1267.16066	0.147827655
1265.23195	0.147644928
1263.30324	0.14748136
1261.37454	0.147514114
1259.44583	0.147588717
1257.51712	0.147421932
1255.58841	0.147229265
1253.65971	0.14714389
1251.731	0.147037572
1249.80229	0.147037572
1247.87359	0.146963124
1245.94488	0.146760767
1244.01617	0.146765718
1242.08746	0.14658926
1240.15876	0.146567381
1238.23005	0.146416879
1236.30134	0.146265938
1234.37263	0.146141215
1232.44393	0.145989403
1230.51522	0.145863836
1228.58651	0.145737855
1226.65781	0.145795079
1224.7291	0.145668567
1222.80039	0.145541636
1220.87168	0.145441122
1218.94298	0.145340237
1217.01427	0.145212076
1215.08556	0.145137342
1213.15686	0.144849386
1211.22815	0.144800596
1209.29944	0.144724556
1207.37073	0.144675276
1205.44203	0.144438192
1203.51332	0.144388043
1201.58461	0.144149237
1199.6559	0.144098206
1197.7272	0.144046943
1195.79849	0.143995447
1193.86978	0.143943716
1191.94108	0.143701163
1190.01237	0.143621085
1188.08366	0.143404174
1186.15495	0.143213669
1184.22625	0.143049673
1182.29754	0.142939927
1180.36883	0.142774119
1178.44012	0.142663043
1176.51142	0.142523819
1174.58271	0.142384106
1172.654	0.142299434
1170.7253	0.142046566
1168.79659	0.141988625
1166.86788	0.141761699
1164.93917	0.141730731
1163.01047	0.141474017
1161.08176	0.141244057
1159.15305	0.141183479
1157.22435	0.140951623
1155.29564	0.140946297
1153.36693	0.140768923
1151.43822	0.14059048
1149.50952	0.14043925
1147.58081	0.140315406
1145.6521	0.140190708
1143.72339	0.139833096
1141.79469	0.139677353
1139.86598	0.139230139
1137.93727	0.139042925
1136.00857	0.138854553
1134.07986	0.138722349
1132.15115	0.138381743
1130.22244	0.138067472
1128.29374	0.137599331
1126.36503	0.137337253
1124.43632	0.137130802
1122.50761	0.136922425
1120.57891	0.136528222
1118.6502	0.136159281
1116.72149	0.135786529
1114.79279	0.135439204
1112.86408	0.135088101
1110.93537	0.134792123
1109.00666	0.134492626
1107.07796	0.134470536
1105.14925	0.134165367
1103.22054	0.133856502
1101.29184	0.133709132
1099.36313	0.133695898
1097.43442	0.133560865
1095.50571	0.133333333
1093.57701	0.133272269
1091.6483	0.133210841
1089.71959	0.133149044
1087.79088	0.132886526
1085.86218	0.132946636
1083.93347	0.133038211
1082.00476	0.132927685
1080.07606	0.132549941
1078.14735	0.132373761
1076.21864	0.132164851
1074.28993	0.131891635
1072.36123	0.131760782
1070.43252	0.131597803
1068.50381	0.131434044
1066.5751	0.131301008
1064.6464	0.130926594
1062.71769	0.130581704
1060.78898	0.130445305
1058.86028	0.130244967
1056.93157	0.130160272
1055.00286	0.129800681
1053.07415	0.129620623
1051.14545	0.129440389
1049.21674	0.129047967
1047.28803	0.128654971
1045.35933	0.1282614
1043.43062	0.128111274
1041.50191	0.127960928
1039.5732	0.128086043
1037.6445	0.127935421
1035.71579	0.127815867
1033.78708	0.12741975
1031.85837	0.127268269
1029.92967	0.126871166
1028.00096	0.126656848
1026.07225	0.126380368
1024.14355	0.125796959
1022.21484	0.125673689
1020.28613	0.125550661
1018.35742	0.125183374
1016.42872	0.124542125
1014.50001	0.124116069
1012.5713	0.123661149
1010.64259	0.123420797
1008.71389	0.122909091
1006.78518	0.122671183
1004.85647	0.122281295
1002.92777	0.121921777
1000.99906	0.121621622
999.07035	0.121351025
997.14164	0.120868516
995.21294	0.120415058
993.28423	0.119777831
991.35552	0.119410201
989.42682	0.118828654
987.49811	0.118545455
985.5694	0.118075802
983.64069	0.117661389
981.71199	0.117546432
979.78328	0.117488349
977.85457	0.117023898
975.92586	0.116307845
973.99716	0.116082525
972.06845	0.115797355
970.13974	0.115423135
968.21104	0.115017579
966.28233	0.114551863
964.35362	0.114083796
962.42491	0.11361336
960.49621	0.113169246
958.5675	0.112977099
956.63879	0.112586163
954.71008	0.111965155
952.78138	0.111654232
950.85267	0.111111111
948.92396	0.110620618
946.99526	0.110472708
945.06655	0.109884332
943.13784	0.109346042
941.20913	0.108858058
939.28043	0.108420769
937.35172	0.108034745
935.42301	0.10770074
933.49431	0.107360266
931.5656	0.107013132
929.63689	0.106287003
927.70818	0.105802048
925.77948	0.105248064
923.85077	0.104943625
921.92206	0.104634217
919.99335	0.104350382
918.06465	0.104092527
916.13594	0.103830042
914.20723	0.103323263
912.27853	0.102837962
910.34982	0.102405922
908.42111	0.102028081
906.4924	0.101705622
904.5637	0.10137512
902.63499	0.100647249
900.70628	0.100163666
898.77757	0.099537037
896.84887	0.099165275
894.92016	0.098786244
892.99145	0.098807496
891.06275	0.098484848
889.13404	0.098155238
887.20533	0.097852869
885.27662	0.097153025
883.34792	0.096797409
881.41921	0.096832909
879.4905	0.096429886
877.5618	0.095982143
875.63309	0.095792637
873.70438	0.095526914
871.77567	0.095529232
869.84697	0.095109742
867.91826	0.095034911
865.98955	0.094958968
864.06084	0.09488189
862.13214	0.094803649
860.20343	0.094686376
858.27472	0.094567404
856.34602	0.094003241
854.41731	0.093839249
852.4886	0.093672966
850.55989	0.09384043
848.63119	0.093555094
846.70248	0.093227425
844.77377	0.09293524
842.84506	0.092983939
840.91636	0.093033135
838.98765	0.093549765
837.05894	0.094031773
835.13024	0.094087182
833.20153	0.09366869
831.27282	0.093641115
829.34411	0.093572366
827.41541	0.094024605
825.4867	0.094481236
823.55799	0.094540613
821.62929	0.09455843
819.70058	0.09453405
817.77187	0.094916779
815.84316	0.094893809
813.91446	0.095778484
811.98575	0.096259124
810.05704	0.096744613
808.12833	0.097235023
806.19963	0.097222222
804.27092	0.098048327
802.34221	0.098368298
800.41351	0.098552078
798.4848	0.099111734
796.55609	0.100046751
794.62738	0.10046729
792.69868	0.10130719
790.76997	0.101679104
788.84126	0.102468561
786.91255	0.103351955
784.98385	0.104651163
783.05514	0.105532311
781.12643	0.106462111
779.19773	0.107342007
777.26902	0.108170845
775.34031	0.109048724
773.4116	0.110287303
771.4829	0.11147086
769.55419	0.112702079
767.62548	0.113468635
765.69678	0.114285714
763.76807	0.115561694
761.83936	0.116835327
759.91065	0.11775529
757.98195	0.118675253
756.05324	0.119650253
754.12453	0.120221096
752.19582	0.120904476
750.26712	0.121996303
748.33841	0.122685185
746.4097	0.122969838
744.481	0.123778502
742.55229	0.124591694
740.62358	0.125409453
738.69487	0.125762553
736.76617	0.126177024
734.83746	0.126594237
732.90875	0.127074443
730.98004	0.127558306
729.05134	0.128045867
727.12263	0.128598848
725.19392	0.128798842
723.26522	0.12942317
721.33651	0.13005358
719.4078	0.130754163
717.47909	0.130969966
715.55039	0.131188119
713.62168	0.131408661
711.69297	0.131697546
709.76427	0.132056452
707.83556	0.131912735
705.90685	0.132277835
703.97814	0.132647815
702.04944	0.133022774
700.12073	0.1328125
698.19202	0.132669114
696.26331	0.132593767
694.33461	0.132517296
692.4059	0.132439678
690.47719	0.131891892
688.54849	0.131880109
686.61978	0.132490379
684.69107	0.132704053
682.76236	0.132847534
680.83366	0.132352941
678.90495	0.132420091
676.97624	0.132488479
675.04753	0.132635253
673.11883	0.132784959
671.19012	0.132344214
669.26141	0.131294964
667.33271	0.131435494
665.404	0.131498471
663.47529	0.132262052
661.54658	0.132417239
659.61788	0.131861199
657.68917	0.132015306
655.76046	0.132817537
653.83176	0.132247557
651.90305	0.131665569
649.97434	0.131824234
648.04563	0.131986532
646.11693	0.132062628
644.18822	0.131868132
642.25951	0.131670132
640.3308	0.131468531
638.4021	0.131355932
636.47339	0.132048537
634.54468	0.131939438
632.61598	0.131291028
630.68727	0.131365314
628.75856	0.130890052
626.82985	0.13040182
624.90115	0.129800307
622.97244	0.129182879
621.04373	0.129235619
619.11502	0.129289705
617.18632	0.128536783
615.25761	0.129190515
613.3289	0.128712871
611.4002	0.1280133
609.47149	0.128140704
607.54278	0.128378378
605.61407	0.128620102
603.68537	0.127896996
601.75666	0.128249567
