4999.20917	0.355140187
4997.28046	0.353488372
4995.35176	0.354988399
4993.42305	0.354166667
4991.49434	0.35334873
4989.56564	0.35483871
4987.63693	0.354022989
4985.70822	0.353211009
4983.77951	0.352402746
4981.85081	0.353881279
4979.9221	0.353075171
4977.99339	0.354545455
4976.06468	0.353741497
4974.13598	0.35600907
4972.20727	0.35520362
4970.27856	0.355855856
4968.34986	0.35505618
4966.42115	0.35426009
4964.49244	0.353467562
4962.56373	0.352678571
4960.63503	0.354120267
4958.70632	0.353333333
4956.77761	0.354767184
4954.8489	0.353982301
4952.9202	0.353200883
4950.99149	0.352422907
4949.06278	0.353846154
4947.13408	0.353070175
4945.20537	0.354485777
4943.27666	0.35371179
4941.34795	0.352941176
4939.41925	0.354347826
4937.49054	0.353579176
4935.56183	0.354978355
4933.63313	0.354211663
4931.70442	0.353448276
4929.77571	0.35483871
4927.847	0.354077253
4925.9183	0.353319058
4923.98959	0.353944563
4922.06088	0.353191489
4920.13217	0.353191489
4918.20347	0.351694915
4916.27476	0.353065539
4914.34605	0.352320675
4912.41735	0.353684211
4910.48864	0.352941176
4908.55993	0.354297694
4906.63122	0.353556485
4904.70252	0.352083333
4902.77381	0.353430353
4900.8451	0.352697095
4898.91639	0.351966874
4896.98769	0.354037267
4895.05898	0.353305785
4893.13027	0.354639175
4891.20157	0.353182752
4889.27286	0.352459016
4887.34415	0.351738241
4885.41544	0.353061224
4883.48674	0.352342159
4881.55803	0.353658537
4879.62932	0.352941176
4877.70062	0.352226721
4875.77191	0.353535354
4873.8432	0.352822581
4871.91449	0.353413655
4869.98579	0.352705411
4868.05708	0.352
4866.12837	0.352589641
4864.19966	0.351888668
4862.27096	0.353174603
4860.34225	0.352475248
4858.41354	0.351778656
4856.48484	0.352362205
4854.55613	0.352362205
4852.62742	0.351669941
4850.69871	0.352250489
4848.77001	0.3515625
4846.8413	0.350877193
4844.91259	0.352140078
4842.98388	0.351456311
4841.05518	0.352713178
4839.12647	0.351351351
4837.19776	0.350674374
4835.26906	0.351923077
4833.34035	0.353166987
4831.41164	0.352490421
4829.48293	0.351816444
4827.55423	0.35047619
4825.62552	0.351711027
4823.69681	0.351043643
4821.76811	0.350378788
4819.8394	0.351606805
4817.91069	0.352830189
4815.98198	0.352165725
4814.05328	0.35272045
4812.12457	0.352059925
4810.19586	0.351401869
4808.26715	0.35009311
4806.33845	0.349442379
4804.40974	0.350649351
4802.48103	0.351851852
4800.55233	0.351201479
4798.62362	0.352398524
4796.69491	0.351102941
4794.7662	0.350458716
4792.8375	0.351648352
4790.90879	0.351005484
4788.98008	0.350364964
4787.05137	0.350909091
4785.12267	0.352087114
4783.19396	0.351449275
4781.26525	0.352622061
4779.33655	0.351351351
4777.40784	0.352517986
4775.47913	0.351885099
4773.55042	0.350626118
4771.62172	0.351785714
4769.69301	0.351158645
4767.7643	0.352313167
4765.8356	0.35106383
4763.90689	0.350442478
4761.97818	0.351590106
4760.04947	0.350970018
4758.12077	0.34973638
4756.19206	0.350877193
4754.26335	0.350262697
4752.33464	0.35078534
4750.40594	0.350174216
4748.47723	0.351304348
4746.54852	0.350086655
4744.61982	0.349480969
4742.69111	0.350604491
4740.7624	0.35
4738.83369	0.350515464
4736.90499	0.349315068
4734.97628	0.348717949
4733.04757	0.349829352
4731.11886	0.34923339
4729.19016	0.349745331
4727.26145	0.349152542
4725.33274	0.350253807
4723.40404	0.349662162
4721.47533	0.350758853
4719.54662	0.351260504
4717.61791	0.350671141
4715.68921	0.350083752
4713.7605	0.351170569
4711.83179	0.35
4709.90308	0.351081531
4707.97438	0.349917081
4706.04567	0.350993377
4704.11696	0.349834983
4702.18826	0.350906096
4700.25955	0.350328947
4698.33084	0.351395731
4696.40213	0.350245499
4694.47343	0.350734095
4692.54472	0.350162866
4690.61601	0.349593496
4688.68731	0.350081037
4686.7586	0.349514563
4684.82989	0.350565428
4682.90118	0.349436393
4680.97248	0.348874598
4679.04377	0.349358974
4677.11506	0.3488
4675.18635	0.349840256
4673.25765	0.350318471
4671.32894	0.349761526
4669.40023	0.350237718
4667.47153	0.349683544
4665.54282	0.3507109
4663.61411	0.350157729
4661.6854	0.350628931
4659.7567	0.349529781
4657.82799	0.348982786
4655.89928	0.35
4653.97057	0.349453978
4652.04187	0.34992224
4650.11316	0.348837209
4648.18445	0.349845201
4646.25575	0.349304482
4644.32704	0.349768875
4642.39833	0.350769231
4640.46962	0.349693252
4638.54092	0.349157734
4636.61221	0.349618321
4634.6835	0.349085366
4632.7548	0.350076104
4630.82609	0.349013657
4628.89738	0.35
4626.96867	0.349470499
4625.03997	0.349924585
4623.11126	0.34939759
4621.18255	0.34984985
4619.25384	0.350299401
4617.32514	0.349775785
4615.39643	0.348733234
4613.46772	0.349702381
4611.53902	0.348664688
4609.61031	0.34962963
4607.6816	0.350073855
4605.75289	0.34904271
4603.82419	0.348529412
4601.89548	0.34948605
4599.96677	0.349926794
4598.03806	0.349415205
4596.10936	0.350364964
4594.18065	0.349344978
4592.25194	0.350290698
4590.32324	0.349275362
4588.39453	0.348265896
4586.46582	0.349206349
4584.53711	0.348201439
4582.60841	0.349137931
4580.6797	0.348137536
4578.75099	0.3490701
4576.82229	0.35
4574.89358	0.349002849
4572.96487	0.349431818
4571.03616	0.34893617
4569.10746	0.349363508
4567.17875	0.350282486
4565.25004	0.349295775
4563.32133	0.348804501
4561.39263	0.349228612
4559.46392	0.348251748
4557.53521	0.349162011
4555.60651	0.348189415
4553.6778	0.349095967
4551.74909	0.35
4549.82038	0.349030471
4547.89168	0.348066298
4545.96297	0.348965517
4544.03426	0.348005502
4542.10555	0.348901099
4540.17685	0.349315068
4538.24814	0.348360656
4536.31943	0.349249659
4534.39073	0.349659864
4532.46202	0.349184783
4530.53331	0.349593496
4528.6046	0.348648649
4526.6759	0.349527665
4524.74719	0.34858681
4522.81848	0.349462366
4520.88978	0.349865952
4518.96107	0.348930481
4517.03236	0.349799733
4515.10365	0.349333333
4513.17495	0.349734043
4511.24624	0.349269588
4509.31753	0.349668874
4507.38882	0.35006605
4505.46012	0.34914361
4503.53141	0.349540079
4501.6027	0.349081365
4499.674	0.348167539
4497.74529	0.349019608
4495.81658	0.348109518
4493.88787	0.348958333
4491.95917	0.348051948
4490.03046	0.348445596
4488.10175	0.348837209
4486.17304	0.348387097
4484.24434	0.348777349
4482.31563	0.349614396
4480.38692	0.348717949
4478.45822	0.349551857
4476.52951	0.348659004
4474.6008	0.349044586
4472.67209	0.349428208
4470.74339	0.348984772
4468.81468	0.349367089
4466.88597	0.348484848
4464.95727	0.349306431
4463.02856	0.349685535
4461.09985	0.350062735
4459.17114	0.349186483
4457.24244	0.35
4455.31373	0.349127182
4453.38502	0.348258706
4451.45631	0.349068323
4449.52761	0.349442379
4447.5989	0.348578492
4445.67019	0.349382716
4443.74149	0.348522167
4441.81278	0.348894349
4439.88407	0.349693252
4437.95536	0.3500612
4436.02666	0.349206349
4434.09795	0.348780488
4432.16924	0.349148418
4430.24053	0.348300971
4428.31183	0.348668281
4426.38312	0.349455865
4424.45441	0.348612786
4422.52571	0.348977136
4420.597	0.349339736
4418.66829	0.348502994
4416.73958	0.349282297
4414.81088	0.348448687
4412.88217	0.348809524
4410.95346	0.349168646
4409.02476	0.348754448
4407.09605	0.347928994
4405.16734	0.348288076
4403.23863	0.348645465
4401.30993	0.349001175
4399.38122	0.349355217
4397.45251	0.348538012
4395.5238	0.349299065
4393.5951	0.348484848
4391.66639	0.348079162
4389.73768	0.348432056
4387.80898	0.348783314
4385.88027	0.349537037
4383.95156	0.348729792
4382.02285	0.349078341
4380.09415	0.349425287
4378.16544	0.348623853
4376.23673	0.348970252
4374.30802	0.348173516
4372.37932	0.348916762
4370.45061	0.349260523
4368.5219	0.34846765
4366.5932	0.348810872
4364.66449	0.349152542
4362.73578	0.349492672
4360.80707	0.348706412
4358.87837	0.349046016
4356.94966	0.348264278
4355.02095	0.348603352
4353.09225	0.348214286
4351.16354	0.348552339
4349.23483	0.348888889
4347.30612	0.349223947
4345.37742	0.349557522
4343.44871	0.349889625
4341.52	0.349118943
4339.59129	0.348734873
4337.66259	0.349066959
4335.73388	0.3483023
4333.80517	0.34863388
4331.87647	0.348964013
4329.94776	0.349292709
4328.01905	0.348913043
4326.09034	0.348156182
4324.16164	0.348484848
4322.23293	0.348435814
4320.30422	0.349137931
4318.37551	0.348387097
4316.44681	0.348712446
4314.5181	0.349036403
4312.58939	0.349358974
4310.66069	0.348614072
4308.73198	0.34893617
4306.80327	0.349628055
4304.87456	0.348886532
4302.94586	0.349206349
4301.01715	0.349524815
4299.08844	0.348788198
4297.15974	0.349106204
4295.23103	0.349422875
4293.30232	0.34973822
4291.37361	0.350052247
4289.44491	0.349322211
4287.5162	0.348595213
4285.58749	0.348909657
4283.65878	0.349222798
4281.73008	0.348500517
4279.80137	0.348813209
4277.87266	0.349124614
4275.94396	0.349434738
4274.01525	0.34974359
4272.08654	0.350051177
4270.15783	0.349336057
4268.22913	0.349643221
4266.30042	0.349949135
4264.37171	0.349593496
4262.443	0.34989858
4260.5143	0.350202429
4258.58559	0.349494949
4256.65688	0.349798387
4254.72818	0.350100604
4252.79947	0.34939759
4250.87076	0.349699399
4248.94205	0.34965035
4247.01335	0.34995015
4245.08464	0.349253731
4243.15593	0.349553128
4241.22723	0.349851338
4239.29852	0.350148368
4237.36981	0.349457058
4235.4411	0.349753695
4233.5124	0.350049164
4231.58369	0.34936212
4229.65498	0.349657199
4227.72627	0.349951124
4225.79757	0.349268293
4223.86886	0.349561831
4221.94015	0.349854227
4220.01145	0.35014549
4218.08274	0.350435624
4216.15403	0.350724638
4214.22532	0.351012536
4212.29662	0.35
4210.36791	0.350287908
4208.4392	0.349616858
4206.51049	0.349904398
4204.58179	0.35019084
4202.65308	0.35047619
4200.72437	0.349809886
4198.79567	0.34914611
4196.86696	0.349431818
4194.93825	0.349386213
4193.00954	0.349670123
4191.08084	0.349952963
4189.15213	0.350234742
4187.22342	0.350515464
4185.29472	0.349859682
4183.36601	0.350140056
4181.4373	0.350419385
4179.50859	0.350697674
4177.57989	0.350649351
4175.65118	0.35
4173.72247	0.350277264
4171.79376	0.350553506
4169.86506	0.35050598
4167.93635	0.349862259
4166.00764	0.350458716
4164.07894	0.350732601
4162.15023	0.349771689
4160.22152	0.350045579
4158.29281	0.350318471
4156.36411	0.350590372
4154.4354	0.350861287
4152.50669	0.349909584
4150.57798	0.350180505
4148.64928	0.35045045
4146.72057	0.350719424
4144.79186	0.350672646
4142.86316	0.350044763
4140.93445	0.350312779
4139.00574	0.3514719
4137.07703	0.35173642
4135.14833	0.351111111
4133.21962	0.35106383
4131.29091	0.351327434
4129.36221	0.351590106
4127.4335	0.350660793
4125.50479	0.350923483
4123.57608	0.350307287
4121.64738	0.350569676
4119.71867	0.350831146
4117.78996	0.351091703
4115.86125	0.351045296
4113.93255	0.351304348
4112.00384	0.350694444
4110.07513	0.350953206
4108.14643	0.351211073
4106.21772	0.351164797
4104.28901	0.351118761
4102.3603	0.35137457
4100.4316	0.351629503
4098.50289	0.351883562
4096.57418	0.352136752
4094.64547	0.351535836
4092.71677	0.351788756
4090.78806	0.351741716
4088.85935	0.351993215
4086.93065	0.351945854
4085.00194	0.352195946
4083.07323	0.351602024
4081.14452	0.351555929
4079.21582	0.351805206
4077.28711	0.350921273
4075.3584	0.351170569
4073.4297	0.351419032
4071.50099	0.351373855
4069.57228	0.351620948
4067.64357	0.351037344
4065.71487	0.351284176
4063.78616	0.35153019
4061.85745	0.351775392
4059.92874	0.351729819
4058.00004	0.351973684
4056.07133	0.35192781
4054.14262	0.352170352
4052.21392	0.352124183
4050.28521	0.351549755
4048.3565	0.351791531
4046.42779	0.351746548
4044.49909	0.351987024
4042.57038	0.351941748
4040.64167	0.352180937
4038.71296	0.352419355
4036.78426	0.35237329
4034.85555	0.351807229
4032.92684	0.352044908
4030.99814	0.352
4029.06943	0.352236422
4027.14072	0.353269537
4025.21201	0.352426412
4023.28331	0.352660842
4021.3546	0.352894528
4019.42589	0.352848101
4017.49719	0.353080569
4015.56848	0.353033885
4013.63977	0.352987421
4011.71106	0.35321821
4009.78236	0.353171496
4007.85365	0.352619234
4005.92494	0.352574103
4003.99623	0.352803738
4002.06753	0.353032659
4000.13882	0.352986811
3998.21011	0.353214562
3996.28141	0.353441609
3994.3527	0.353667954
3992.42399	0.353620955
3990.49528	0.353574174
3988.56658	0.353798926
3986.63787	0.352986217
3984.70916	0.353211009
3982.78045	0.353165523
3980.85175	0.353389185
3978.92304	0.353612167
3976.99433	0.353566009
3975.06563	0.353787879
3973.13692	0.353741497
3971.20821	0.353695324
3969.2795	0.353915663
3967.3508	0.353869271
3965.42209	0.354088522
3963.49338	0.354307116
3961.56468	0.35426009
3959.63597	0.354213274
3957.70726	0.35443038
3955.77855	0.354383358
3953.84985	0.353857567
3951.92114	0.354074074
3949.99243	0.354028086
3948.06372	0.354243542
3946.13502	0.354197349
3944.20631	0.354411765
3942.2776	0.354365371
3940.3489	0.35431918
3938.42019	0.354273192
3936.49148	0.354485777
3934.56277	0.354697742
3932.63407	0.354909091
3930.70536	0.354862119
3928.77665	0.354815351
3926.84794	0.354768786
3924.91924	0.354722422
3922.99053	0.354931605
3921.06182	0.355140187
3919.13312	0.355348169
3917.20441	0.355555556
3915.2757	0.355253753
3913.34699	0.355206847
3911.41829	0.355160142
3909.48958	0.355113636
3907.56087	0.354861604
3905.63217	0.355319149
3903.70346	0.355067328
3901.77475	0.355021216
3899.84604	0.3549753
3897.91734	0.355133615
3895.98863	0.355087719
3894.05992	0.35529082
3892.13121	0.355493352
3890.20251	0.355446927
3888.2738	0.355648536
3886.34509	0.355849582
3884.41639	0.355802641
3882.48768	0.355755895
3880.55897	0.355709343
3878.63026	0.355417529
3876.70156	0.356060606
3874.77285	0.356258597
3872.84414	0.356013746
3870.91543	0.356456044
3868.98673	0.356164384
3867.05802	0.356117567
3865.12931	0.356070941
3863.20061	0.356024506
3861.2719	0.356415479
3859.34319	0.356368564
3857.41448	0.356368564
3855.48578	0.356415479
3853.55707	0.356852103
3851.62836	0.356515868
3849.69966	0.356615178
3847.77095	0.356329538
3845.84224	0.356283422
3843.91353	0.3564753
3841.98483	0.356904603
3840.05612	0.356666667
3838.12741	0.356857523
3836.1987	0.356573705
3834.27	0.356953642
3832.34129	0.35667107
3830.41258	0.357284113
3828.48388	0.357001972
3826.55517	0.357189757
3824.62646	0.357377049
3822.69775	0.357142857
3820.76905	0.357329843
3818.84034	0.357282822
3816.91163	0.357235984
3814.98292	0.357607282
3813.05422	0.357512953
3811.12551	0.357466063
3809.1968	0.357881137
3807.2681	0.358064516
3805.33939	0.358247423
3803.41068	0.357786358
3801.48197	0.357969152
3799.55327	0.358333333
3797.62456	0.358466454
3795.69585	0.35818993
3793.76715	0.357914812
3791.83844	0.35786802
3789.90973	0.357821406
3787.98102	0.357774968
3786.05232	0.357954545
3784.12361	0.357908003
3782.1949	0.358086847
3780.26619	0.358040201
3778.33749	0.35862069
3776.40878	0.358348968
3774.48007	0.358926342
3772.55137	0.358478803
3770.62266	0.358655044
3768.69395	0.358830846
3766.76524	0.359181141
3764.83654	0.359133127
3762.90783	0.35908529
3760.97912	0.359259259
3759.05041	0.359211337
3757.12171	0.359163592
3755.193	0.35894284
3753.26429	0.359163592
3751.33559	0.359557468
3749.40688	0.359509202
3747.47817	0.359681373
3745.54946	0.360073484
3743.62076	0.359975595
3741.69205	0.359441409
3739.76334	0.359176257
3737.83464	0.35978195
3735.90593	0.360169492
3733.97722	0.360507246
3732.04851	0.359807461
3730.11981	0.359928014
3728.1911	0.35988024
3726.26239	0.360047847
3724.33368	0.36
3722.40498	0.360333532
3720.47627	0.360285375
3718.54756	0.360023725
3716.61886	0.359976317
3714.69015	0.36035503
3712.76144	0.360141928
3710.83273	0.360094451
3708.90403	0.360211889
3706.97532	0.360328638
3705.04661	0.360867018
3703.1179	0.361029842
3701.1892	0.360981308
3699.26049	0.361305361
3697.33178	0.361256545
3695.40308	0.361207898
3693.47437	0.360998259
3691.54566	0.361578642
3689.61695	0.36136891
3687.68825	0.361480625
3685.75954	0.361383285
3683.83083	0.361127085
3681.90213	0.361286617
3679.97342	0.361653272
3678.04471	0.361653272
3676.116	0.361653272
3674.1873	0.361970218
3672.25859	0.361921098
3670.32988	0.361872146
3668.40117	0.361774744
3666.47247	0.361883154
3664.54376	0.361629881
3662.61505	0.362146893
3660.68635	0.362302483
3658.75764	0.362098139
3656.82893	0.362457723
3654.90022	0.362408554
3652.97152	0.362767154
3651.04281	0.3629713
3649.1141	0.362767154
3647.18539	0.362871565
3645.25669	0.362569832
3643.32798	0.362876254
3641.39927	0.362826934
3639.47057	0.362222222
3637.54186	0.362375139
3635.61315	0.36308204
3633.68444	0.362880886
3631.75574	0.36308204
3629.82703	0.36308204
3627.89832	0.363384956
3625.96961	0.363285557
3624.04091	0.363036304
3622.1122	0.363036304
3620.18349	0.363586359
3618.25479	0.36298737
3616.32608	0.363686231
3614.39737	0.363088719
3612.46866	0.363437329
3610.53996	0.363586659
3608.61125	0.364082969
3606.68254	0.363834423
3604.75384	0.363586957
3602.82513	0.36353771
3600.89642	0.363882863
3598.96771	0.364030336
3597.03901	0.36398053
3595.1103	0.364127499
3593.18159	0.36407767
3591.25288	0.364224138
3589.32418	0.364224138
3587.39547	0.364370291
3585.46676	0.364124597
3583.53806	0.364415863
3581.60935	0.364365971
3579.68064	0.364316239
3577.75193	0.364461046
3575.82323	0.364605544
3573.89452	0.364023417
3571.96581	0.364361702
3570.0371	0.364361702
3568.1084	0.364699628
3566.17969	0.365180467
3564.25098	0.364936441
3562.32228	0.364886304
3560.39357	0.364836325
3558.46486	0.364978903
3556.53615	0.36512118
3554.60745	0.365263158
3552.67874	0.365404837
3550.75003	0.365546218
3548.82133	0.365687303
3546.89262	0.365828092
3544.96391	0.36577708
3543.0352	0.365917407
3541.1065	0.365866388
3539.17779	0.366006257
3537.24908	0.366145833
3535.32037	0.365764828
3533.39167	0.365714286
3531.46296	0.365853659
3529.53425	0.365992742
3527.60555	0.366321244
3525.67684	0.366459627
3523.74813	0.366597725
3521.81942	0.366735537
3519.89072	0.366683858
3517.96201	0.366632338
3516.0333	0.366769547
3514.10459	0.366906475
3512.17589	0.367043121
3510.24718	0.366991287
3508.31847	0.367127496
3506.38977	0.367075665
3504.46106	0.366700715
3502.53235	0.366836735
3500.60364	0.367294957
3498.67494	0.367430025
3496.74623	0.367378049
3494.81752	0.36751269
3492.88882	0.367647059
3490.96011	0.367274569
3489.0314	0.367408907
3487.10269	0.367357251
3485.17399	0.367995962
3483.24528	0.367943548
3481.31657	0.368076536
3479.38786	0.368024133
3477.45916	0.367971888
3475.53045	0.368104313
3473.60174	0.368552829
3471.67304	0.3685
3469.74433	0.368631369
3467.81562	0.368578554
3465.88691	0.368525896
3463.95821	0.368970661
3462.0295	0.368917577
3460.10079	0.369047619
3458.17208	0.368994552
3456.24338	0.368941642
3454.31467	0.369071146
3452.38596	0.369018254
3450.45726	0.369147363
3448.52855	0.369094488
3446.59984	0.36953317
3444.67113	0.369479882
3442.74243	0.369426752
3440.81372	0.369373777
3438.88501	0.369320957
3436.95631	0.369268293
3435.0276	0.369702874
3433.09889	0.370136187
3431.17018	0.369902913
3429.24148	0.370155039
3427.31277	0.370585389
3425.38406	0.370352487
3423.45535	0.370298939
3421.52665	0.37072701
3419.59794	0.370673077
3417.66923	0.370441459
3415.74053	0.370867274
3413.81182	0.370636059
3411.88311	0.370582617
3409.9544	0.371183206
3408.0257	0.371129109
3406.09699	0.371075167
3404.16828	0.371021378
3402.23957	0.371442125
3400.31087	0.371212121
3398.38216	0.371455577
3396.45345	0.371698113
3394.52475	0.371939736
3392.59604	0.371710526
3390.66733	0.37195122
3388.73862	0.371722846
3386.80992	0.372136512
3384.88121	0.371908539
3382.9525	0.372320596
3381.0238	0.37255814
3379.09509	0.372503484
3377.16638	0.372739917
3375.23767	0.372685185
3373.30897	0.37245841
3371.38026	0.372865713
3369.45155	0.372639337
3367.52284	0.373045078
3365.59414	0.373449701
3363.66543	0.373223292
3361.73672	0.372997712
3359.80802	0.373400366
3357.87931	0.373175182
3355.9506	0.37357631
3354.02189	0.373351523
3352.09319	0.373751135
3350.16448	0.373526745
3348.23577	0.373924853
3346.30706	0.373869801
3344.37836	0.374097473
3342.44965	0.374493015
3340.52094	0.374269006
3338.59224	0.374494836
3336.66353	0.374439462
3334.73482	0.374216652
3332.80611	0.374608851
3330.87741	0.374832664
3328.9487	0.374610245
3327.01999	0.375
3325.09129	0.374777975
3323.16258	0.374722838
3321.23387	0.374944666
3319.30516	0.375165709
3317.37646	0.375551633
3315.44775	0.375770925
3313.51904	0.375549692
3311.59033	0.375329236
3309.66163	0.375109553
3307.73292	0.375492341
3305.80421	0.375709917
3303.87551	0.375926734
3301.9468	0.376142795
3300.01809	0.376521739
3298.08938	0.376302083
3296.16068	0.376083189
3294.23197	0.376297578
3292.30326	0.376511226
3290.37455	0.376293103
3288.44585	0.376506024
3286.51714	0.376880103
3284.58843	0.376500858
3282.65973	0.376712329
3280.73102	0.376923077
3278.80231	0.377133106
3276.8736	0.376916525
3274.9449	0.377286261
3273.01619	0.377070064
3271.08748	0.377118644
3269.15878	0.377326565
3267.23007	0.377533784
3265.30136	0.377740304
3263.37265	0.377525253
3261.44395	0.377731092
3259.51524	0.378094838
3257.58653	0.37829912
3255.65782	0.378084483
3253.72912	0.3782881
3251.80041	0.378074198
3249.8717	0.378277154
3247.943	0.378479435
3246.01429	0.378681045
3244.08558	0.378881988
3242.15687	0.378668871
3240.22817	0.37886917
3238.29946	0.378656778
3236.37075	0.379012346
3234.44204	0.379211175
3232.51334	0.379253793
3230.58463	0.379451494
3228.65592	0.379239886
3226.72722	0.379844961
3224.79851	0.379633401
3222.8698	0.379829199
3220.94109	0.379618352
3219.01239	0.379813539
3217.08368	0.380008094
3215.15497	0.38020202
3213.22627	0.380395321
3211.29756	0.380587998
3209.36885	0.38022508
3207.44014	0.380417335
3205.51144	0.380608974
3203.58273	0.3804
3201.65402	0.380591054
3199.72531	0.380781499
3197.79661	0.380971338
3195.8679	0.381160572
3193.93919	0.381197937
3192.01049	0.380990099
3190.08178	0.381178331
3188.15307	0.38121547
3186.22436	0.381402679
3184.29566	0.3815893
3182.36695	0.381382561
3180.43824	0.381568627
3178.50953	0.381754111
3176.58083	0.381789762
3174.65212	0.381974249
3172.72341	0.382009346
3170.79471	0.382192846
3168.866	0.381987578
3166.93729	0.382170543
3165.00858	0.382352941
3163.07988	0.382387022
3161.15117	0.382568454
3159.22246	0.382749326
3157.29376	0.382929642
3155.36505	0.383109405
3153.43634	0.383141762
3151.50763	0.383320581
3149.57893	0.383498854
3147.65022	0.383295195
3145.72151	0.383326989
3143.7928	0.383504371
3141.8641	0.383915023
3139.93539	0.383945475
3138.00668	0.384120983
3136.07798	0.38391846
3134.14927	0.383948757
3132.22056	0.384123401
3130.29185	0.384297521
3128.36315	0.384471118
3126.43444	0.384644195
3124.50573	0.384299065
3122.57702	0.384471818
3120.64832	0.384873323
3118.71961	0.385044643
3116.7909	0.384843982
3114.8622	0.385242862
3112.93349	0.38541281
3111.00478	0.385439763
3109.07607	0.385608856
3107.14737	0.385635359
3105.21866	0.385661765
3103.28995	0.385829662
3101.36125	0.385997067
3099.43254	0.386163982
3097.50383	0.385823895
3095.57512	0.385849745
3093.64642	0.386380189
3091.71771	0.386404944
3089.789	0.386569873
3087.86029	0.386594203
3085.93159	0.386758321
3084.00288	0.386782232
3082.07417	0.386945546
3080.14547	0.386969042
3078.21676	0.386992454
3076.28805	0.387154647
3074.35934	0.387316374
3072.43064	0.387339056
3070.50193	0.387142857
3068.57322	0.387303852
3066.64451	0.387326451
3064.71581	0.387486669
3062.7871	0.387863733
3060.85839	0.387885228
3058.92969	0.388043863
3057.00098	0.388202049
3055.07227	0.388222849
3053.14356	0.388380282
3051.21486	0.388400703
3049.28615	0.388557389
3047.35744	0.388713635
3045.42874	0.38873338
3043.50003	0.388888889
3041.57132	0.38855947
3039.64261	0.389063044
3037.71391	0.389217391
3035.7852	0.389371309
3033.85649	0.38917794
3031.92778	0.389196676
3029.99908	0.389349931
3028.07037	0.389502762
3026.14166	0.389520855
3024.21296	0.389672978
3022.28425	0.389824682
3020.35554	0.38997597
3018.42683	0.390126843
3016.49813	0.390277302
3014.56942	0.39042735
3012.64071	0.390710383
3010.712	0.390518417
3008.7833	0.390667575
3006.85459	0.390609051
3004.92588	0.39075773
3002.99718	0.390906006
3001.06847	0.390847458
2999.13976	0.391127667
2997.21105	0.391069012
2995.28235	0.39148073
2993.35364	0.391554054
2991.42493	0.391964889
2989.49623	0.391700405
2987.56752	0.391905565
2985.63881	0.391773432
2983.7101	0.391773432
2981.7814	0.391905565
2979.85269	0.392037787
2977.92398	0.392302498
2975.99527	0.392494929
2974.06657	0.39282086
2972.13786	0.392941975
2970.20915	0.392990813
2968.28045	0.392905866
2966.35174	0.392893748
2964.42303	0.393162393
2962.49432	0.393577041
2960.56562	0.3933197
2958.63691	0.393476045
2956.7082	0.393703453
2954.77949	0.393929174
2952.85079	0.393817204
2950.92208	0.394172806
2948.99337	0.394121576
2947.06467	0.394131377
2945.13596	0.394272394
2943.20725	0.394342762
2941.27854	0.394342762
2939.34984	0.394806924
2937.42113	0.394938395
2935.49242	0.394938395
2933.56372	0.394938395
2931.63501	0.395008319
2929.7063	0.394946809
2927.77759	0.395086321
2925.84889	0.39542592
2923.92018	0.395502646
2921.99147	0.395778364
2920.06276	0.395792242
2918.13406	0.395806029
2916.20535	0.3956905
2914.27664	0.395704523
2912.34794	0.395846853
2910.41923	0.396116505
2908.49052	0.396061975
2906.56181	0.396457327
2904.63311	0.396529563
2902.7044	0.396601475
2900.77569	0.396673065
2898.84698	0.396744335
2896.91828	0.396815287
2894.98957	0.396885923
2893.06086	0.396956246
2891.13216	0.397151899
2889.20345	0.397472354
2887.27474	0.397476341
2885.34603	0.397605545
2883.41733	0.397419761
2881.48862	0.397798742
2879.55991	0.397862979
2877.63121	0.397927136
2875.7025	0.398180107
2873.77379	0.398307741
2871.84508	0.398435055
2869.91638	0.3984375
2867.98767	0.398439938
2866.05896	0.398442368
2864.13025	0.398568762
2862.20155	0.398694842
2860.27284	0.398820608
2858.34413	0.399069767
2856.41543	0.399071207
2854.48672	0.399072643
2852.55801	0.399136336
2850.6293	0.399076923
2848.7006	0.399386503
2846.77189	0.399388379
2844.84318	0.399390244
2842.91447	0.39951353
2840.98577	0.399757355
2839.05706	0.4
2837.12835	0.400060386
2835.19965	0.400241109
2833.27094	0.400120337
2831.34223	0.4003003
2829.41352	0.40029985
2827.48482	0.400478899
2825.55611	0.400478183
2823.6274	0.400775888
2821.6987	0.400774732
2819.76999	0.400773579
2817.84128	0.401188707
2815.91257	0.401067932
2813.98387	0.401066351
2812.05516	0.401183432
2810.12645	0.401181684
2808.19774	0.40159339
2806.26904	0.401709402
2804.34033	0.402001177
2802.41162	0.401998237
2800.48292	0.401995305
2798.55421	0.402110199
2796.6255	0.402224824
2794.69679	0.402221573
2792.76809	0.40221833
2790.83938	0.402506558
2788.91067	0.402620087
2786.98196	0.402616279
2785.05326	0.402612482
2783.12455	0.402898551
2781.19584	0.403011002
2779.26714	0.403006649
2777.33843	0.403290993
2775.40972	0.403402537
2773.48101	0.403513825
2771.55231	0.403508772
2769.6236	0.40361965
2767.69489	0.403614458
2765.76619	0.404011461
2763.83748	0.403719599
2761.90877	0.403829666
2759.98006	0.40422495
2758.05136	0.404218928
2756.12265	0.404328018
2754.19394	0.404721274
2752.26523	0.40471457
2750.33653	0.404822695
2748.40782	0.404930575
2746.47911	0.405206565
2744.55041	0.405199209
2742.6217	0.405306238
2740.69299	0.405413025
2738.76428	0.405801183
2736.83558	0.405511811
2734.90687	0.405617978
2732.97816	0.405723906
2731.04945	0.405996077
2729.12075	0.406101315
2727.19204	0.406092789
2725.26333	0.406363383
2723.33463	0.4064678
2721.40592	0.406458797
2719.47721	0.406562848
2717.5485	0.406666667
2715.6198	0.406934813
2713.69109	0.406925208
2711.76238	0.407028224
2709.83368	0.407294833
2707.90497	0.40712117
2705.97626	0.407499311
2704.04755	0.407601212
2702.11885	0.407590759
2700.19014	0.407580335
2698.26143	0.407681756
2696.33272	0.407671233
2694.40402	0.407772304
2692.47531	0.408146528
2690.5466	0.40824686
2688.6179	0.408235615
2686.68919	0.408335603
2684.76048	0.408435374
2682.83177	0.408695652
2680.90307	0.408794788
2678.97436	0.408782868
2677.04565	0.408881668
2675.11694	0.409250744
2673.18824	0.40923825
2671.25953	0.409606044
2669.33082	0.409433962
2667.40212	0.409421265
2665.47341	0.409787577
2663.5447	0.409774436
2661.61599	0.409871245
2659.68729	0.409858023
2657.75858	0.409954509
2655.82987	0.410208445
2653.90117	0.410304325
2651.97246	0.410557185
2650.04375	0.410543131
2648.11504	0.41037234
2646.18634	0.410733262
2644.25763	0.410828025
2642.32892	0.410813676
2640.40021	0.410908128
2638.47151	0.410893707
2636.5428	0.411251981
2634.61409	0.411237141
2632.68539	0.411330698
2630.75668	0.411424059
2628.82797	0.411671924
2626.89926	0.411764706
2624.97056	0.412011539
2623.04185	0.412103746
2621.11314	0.41219576
2619.18443	0.412287582
2617.25573	0.41227154
2615.32702	0.412255541
2613.39831	0.4125
2611.46961	0.412591051
2609.5409	0.412574695
2607.61219	0.412924994
2605.68348	0.412908243
2603.75478	0.412998446
2601.82607	0.413347129
2599.89736	0.413436693
2597.96865	0.413419355
2596.03995	0.413508636
2594.11124	0.413597734
2592.18253	0.413837449
2590.25383	0.413819676
2588.32512	0.414058492
2586.39641	0.414146591
2584.4677	0.414128487
2582.539	0.414216313
2580.61029	0.414559387
2578.68158	0.414540816
2576.75288	0.414522293
2574.82417	0.414609315
2572.89546	0.414844942
2570.96675	0.414931437
2569.03805	0.415166117
2567.10934	0.41525209
2565.18063	0.415232794
2563.25192	0.415466262
2561.32322	0.415446744
2559.39451	0.415532022
2557.4658	0.415617128
2555.5371	0.415702063
2553.60839	0.415933652
2551.67968	0.416018077
2549.75097	0.416248746
2547.82227	0.416332665
2545.89356	0.416312234
2543.96485	0.416395901
2542.03614	0.416625062
2540.10744	0.416853652
2538.17873	0.416936488
2536.25002	0.417164179
2534.32132	0.417246521
2532.39261	0.417225118
2530.4639	0.417203768
2528.53519	0.417285785
2526.60649	0.41736764
2524.67778	0.417593279
2522.74907	0.417674648
2520.82037	0.417899408
2518.89166	0.41787737
2516.96295	0.418204182
2515.03424	0.418181818
2513.10554	0.418159509
2511.17683	0.418239765
2509.24812	0.418319863
2507.31941	0.418542074
2505.39071	0.418519423
2503.462	0.418740849
2501.53329	0.418820088
2499.60459	0.418797176
2497.67588	0.41901751
2495.74717	0.419339164
2493.81846	0.419417476
2491.88976	0.419393939
2489.96105	0.419714217
2488.03234	0.419690373
2486.10363	0.419666586
2484.17493	0.419985518
2482.24622	0.419961427
2480.31751	0.419937395
2478.38881	0.420014433
2476.4601	0.420230658
2474.53139	0.420547288
2472.60268	0.420522656
2470.67398	0.420737548
2468.74527	0.420813397
2466.81656	0.421027479
2464.88786	0.421002387
2462.95915	0.42107773
2461.03044	0.421290784
2459.10173	0.421265461
2457.17303	0.421477786
2455.24432	0.421452302
2453.31561	0.421763869
2451.3869	0.421837991
2449.4582	0.422048734
2447.52949	0.42212243
2445.60078	0.422332389
2443.67208	0.422206506
2441.74337	0.422515309
2439.81466	0.422488826
2437.88595	0.42279671
2435.95725	0.422769953
2434.02854	0.422743259
2432.09983	0.422815648
2430.17112	0.423022929
2428.24242	0.423229727
2426.31371	0.423202614
2424.385	0.42340872
2422.4563	0.423614346
2420.52759	0.423918101
2418.59888	0.423890309
2416.67017	0.424094708
2414.74147	0.424066775
2412.81276	0.424038907
2410.88405	0.424242424
2408.95535	0.424312457
2407.02664	0.424284395
2405.09793	0.424486973
2403.16922	0.424689083
2401.24052	0.424660686
2399.31181	0.424632353
2397.3831	0.424931129
2395.45439	0.42513185
2393.52569	0.425103069
2391.59698	0.425400458
2389.66827	0.425371429
2387.73957	0.425473636
2385.81086	0.425672595
2383.88215	0.425643361
2381.95344	0.425938567
2380.02474	0.425909091
2378.09603	0.426203451
2376.16732	0.426173736
2374.23861	0.426144087
2372.30991	0.426437302
2370.3812	0.426633507
2368.45249	0.426603433
2366.52379	0.426669675
2364.59508	0.426864999
2362.66637	0.427059883
2360.73766	0.427029458
2358.80896	0.42722372
2356.88025	0.427097353
2354.95154	0.427515124
2353.02284	0.427612441
2351.09413	0.427581582
2349.16542	0.427774057
2347.23671	0.427838501
2345.30801	0.428030303
2343.3793	0.42809439
2341.45059	0.428285524
2339.52188	0.428349256
2337.59318	0.428539725
2335.66447	0.428508091
2333.73576	0.428697963
2331.80706	0.428887414
2329.87835	0.428760769
2327.94964	0.429170344
2326.02093	0.429358607
2324.09223	0.429546455
2322.16352	0.429419525
2320.23481	0.429387217
2318.3061	0.429574375
2316.3774	0.429761122
2314.44869	0.429947461
2312.51998	0.429914717
2310.59128	0.430006552
2308.66257	0.430191972
2306.73386	0.430252833
2304.80515	0.430655345
2302.87645	0.43062201
2300.94774	0.430588746
2299.01903	0.430772569
2297.09033	0.430739215
2295.16162	0.430922477
2293.23291	0.430982259
2291.3042	0.431164902
2289.3755	0.431440294
2287.44679	0.431622088
2285.51808	0.43158802
2283.58937	0.431554025
2281.66067	0.431520103
2279.73196	0.431701031
2277.80325	0.431974249
2275.87455	0.432154341
2273.94584	0.432119914
2272.01713	0.432085561
2270.08842	0.43214362
2268.15972	0.432322801
2266.23101	0.432501599
2264.3023	0.432680017
2262.37359	0.432737335
2260.44489	0.432915161
2258.51618	0.433092608
2256.58747	0.43326968
2254.65877	0.433354524
2252.73006	0.433530906
2250.80135	0.433495454
2248.87264	0.433579725
2246.94394	0.433755274
2245.01523	0.433839022
2243.08652	0.43380341
2241.15782	0.433886904
2239.22911	0.433970187
2237.3004	0.434144295
2235.37169	0.434227063
2233.44299	0.434400502
2231.51428	0.434482759
2229.58557	0.434564809
2227.65686	0.434646654
2225.72816	0.434818825
2223.79945	0.434900166
2221.87074	0.435071681
2219.94204	0.435152521
2218.01333	0.435323383
2216.08462	0.435403727
2214.15591	0.43557394
2212.22721	0.435653791
2210.2985	0.435823359
2208.36979	0.435992579
2206.44108	0.436071649
2204.51238	0.43624023
2202.58367	0.436203
2200.65496	0.4363711
2198.72626	0.436538856
2196.79755	0.436616834
2194.86884	0.436783961
2192.94013	0.436746372
2191.01143	0.436913026
2189.08272	0.436875382
2187.15401	0.437041565
2185.22531	0.437207409
2183.2966	0.437372916
2181.36789	0.437538087
2179.43918	0.4375
2177.51048	0.437664707
2175.58177	0.437829081
2173.65306	0.437790815
2171.72435	0.438156831
2169.79565	0.438118312
2167.86694	0.438079871
2165.93823	0.438242998
2164.00953	0.438204509
2162.08082	0.438367183
2160.15211	0.43852953
2158.2234	0.438691551
2156.2947	0.438652767
2154.36599	0.438902244
2152.43728	0.439063438
2150.50857	0.439112178
2148.57987	0.439136518
2146.65116	0.439336398
2144.72245	0.439336398
2142.79375	0.439520958
2140.86504	0.439641434
2138.93633	0.439848877
2137.00762	0.440031771
2135.07892	0.439992065
2133.15021	0.440150614
2131.2215	0.440023753
2129.2928	0.440094899
2127.36409	0.440450326
2125.43538	0.440323535
2123.50667	0.440480883
2121.57797	0.440637921
2119.64926	0.44079465
2117.72055	0.44086444
2115.79184	0.441020608
2113.86314	0.441089982
2111.93443	0.441245593
2110.00572	0.441314554
2108.07702	0.441665038
2106.14831	0.441538161
2104.2196	0.441692668
2102.29089	0.442041691
2100.36219	0.44210936
2098.43348	0.442176871
2096.50477	0.442244224
2094.57606	0.442397207
2092.64736	0.442464161
2090.71865	0.442337461
2088.78994	0.442597603
2086.86124	0.442664093
2084.93253	0.442730428
2083.00382	0.442989214
2081.07511	0.443055021
2079.14641	0.443205843
2077.2177	0.443271261
2075.28899	0.443336529
2073.36029	0.443401647
2071.43158	0.443466616
2069.50287	0.443509845
2067.57416	0.443744031
2065.64546	0.44370229
2063.71675	0.443872689
2061.78804	0.443958135
2059.85933	0.444127708
2057.93063	0.444381169
2056.00192	0.444444444
2054.07321	0.444507576
2052.14451	0.444654683
2050.2158	0.444528445
2048.28709	0.444780064
2046.35838	0.444842542
2044.42968	0.444904879
2042.50097	0.445050809
2040.57226	0.445112782
2038.64355	0.445362373
2036.71485	0.445507409
2034.78614	0.445568672
2032.85743	0.445609436
2030.92873	0.445629796
2029.00002	0.446024322
2027.07131	0.446104988
2025.1426	0.446185413
2023.2139	0.446348733
2021.28519	0.446408634
2019.35648	0.446551404
2017.42778	0.446508172
2015.49907	0.446650585
2013.57036	0.446895273
2011.64165	0.446954268
2009.71295	0.447095819
2007.78424	0.44723711
2005.85553	0.447193501
2003.92682	0.44733444
2001.99812	0.44747512
2000.06941	0.44761554
1998.1407	0.447489424
1996.212	0.447629548
1994.28329	0.447769414
1992.35458	0.447991194
1990.42587	0.447947214
1988.49717	0.448086431
1986.56846	0.448143406
1984.63975	0.448282164
1982.71104	0.448420668
1980.78234	0.448376505
1978.85363	0.448596427
1976.92492	0.448552176
1974.99622	0.448871907
1973.06751	0.449090909
1971.1388	0.449309593
1969.21009	0.449264839
1967.28139	0.449301651
1965.35268	0.449438202
1963.42397	0.449375113
1961.49527	0.44958288
1959.56656	0.449709513
1957.63785	0.449782451
1955.70914	0.44994579
1953.78044	0.450153236
1951.85173	0.450207095
1949.92302	0.45042289
1947.99431	0.450476362
1946.06561	0.450529718
1944.1369	0.450663796
1942.20819	0.450797634
1940.27949	0.450769782
1938.35078	0.450741999
1936.42207	0.451053948
1934.49336	0.451186864
1932.56466	0.451319544
1930.63595	0.451451986
1928.70724	0.451406194
1926.77853	0.451618641
1924.84983	0.451750489
1922.92112	0.451784763
1920.99241	0.451996451
1919.06371	0.452207838
1917.135	0.452258636
1915.20629	0.452326198
1913.27758	0.452200035
1911.34888	0.452410383
1909.42017	0.45236415
1907.49146	0.452494271
1905.56276	0.452720549
1903.63405	0.452850106
1901.70534	0.452979434
1899.77663	0.453188126
1897.84793	0.453220994
1895.91922	0.453429223
1893.99051	0.453382404
1892.0618	0.453590193
1890.1331	0.453622681
1888.20439	0.4535758
1886.27568	0.453799127
1884.34698	0.453752182
1882.41827	0.453879686
1880.48956	0.454006969
1878.56085	0.45413403
1876.63215	0.45426087
1874.70344	0.454387489
1872.77473	0.45449809
1870.84602	0.454671761
1868.91732	0.454861111
1866.98861	0.454923717
1865.0599	0.454907391
1863.1312	0.454954176
1861.20249	0.455252246
1859.27378	0.455204557
1857.34507	0.455501897
1855.41637	0.455454075
1853.48766	0.455656966
1851.55895	0.455781142
1849.63025	0.455811554
1847.70154	0.456077016
1845.77283	0.456155433
1843.84412	0.456357388
1841.91542	0.456432247
1839.98671	0.456413769
1838.058	0.456458512
1836.12929	0.456581197
1834.20059	0.456532878
1832.27188	0.456796448
1830.34317	0.456811198
1828.41447	0.457181849
1826.48576	0.457225631
1824.55705	0.457269322
1822.62834	0.457405203
1820.69964	0.457448616
1818.77093	0.457647259
1816.84222	0.457675997
1814.91351	0.457782299
1812.98481	0.45779661
1811.0561	0.457902761
1809.12739	0.457931268
1807.19869	0.458128912
1805.26998	0.458234697
1803.34127	0.458403788
1801.41256	0.458572878
1799.48386	0.458586883
1797.55515	0.458783784
1795.62644	0.458783784
1793.69774	0.459016393
1791.76903	0.459185398
1789.84032	0.45905791
1787.91161	0.45925426
1785.98291	0.45942298
1784.0542	0.459591699
1782.12549	0.459682861
1780.19678	0.459773992
1778.26808	0.459787557
1776.33937	0.459865093
1774.41066	0.459915612
1772.48196	0.460226313
1770.55325	0.460408577
1768.62454	0.460526316
1766.69583	0.460566229
1764.76713	0.460670372
1762.83842	0.460657119
1760.90971	0.460812405
1758.981	0.461058665
1757.0523	0.461123292
1755.12359	0.461343687
1753.19488	0.461616503
1751.26618	0.461707896
1749.33747	0.462008141
1747.40876	0.462073647
1745.48005	0.46196944
1743.55135	0.46217916
1741.62264	0.46212766
1739.69393	0.462350937
1737.76523	0.462574595
1735.83652	0.462694212
1733.90781	0.462839569
1731.9791	0.462902951
1730.0504	0.462899932
1728.12169	0.462962963
1726.19298	0.46293469
1724.26427	0.462984923
1722.33557	0.46310088
1720.40686	0.463439404
1718.47815	0.463439404
1716.54945	0.463567202
1714.62074	0.463496881
1712.69203	0.463517149
1710.76332	0.463758389
1708.83462	0.463884699
1706.90591	0.463908893
1704.9772	0.464112431
1703.04849	0.464202074
1701.11979	0.464279739
1699.19108	0.46440508
1697.26237	0.464398866
1695.33367	0.464559068
1693.40496	0.464487222
1691.47625	0.464546057
1689.54754	0.464812055
1687.61884	0.464800398
1685.69013	0.464931189
1683.76142	0.465096999
1681.83272	0.465077789
1679.90401	0.465212362
1677.9753	0.465223856
1676.04659	0.465300727
1674.11789	0.46531219
1672.18918	0.465246822
1670.26047	0.465488771
1668.33176	0.465599736
1666.40306	0.46548031
1664.47435	0.465733114
1662.54564	0.465821117
1660.61694	0.465843621
1658.68823	0.465854863
1656.75952	0.465974625
1654.83081	0.466292135
1652.90211	0.466424082
1650.9734	0.466490591
1649.04469	0.466611707
1647.11598	0.466611707
1645.18728	0.466644704
1643.25857	0.466535109
1641.32986	0.466721446
1639.40116	0.466864003
1637.47245	0.466985016
1635.54374	0.467138857
1633.61503	0.467105263
1631.68633	0.467235999
1629.75762	0.467246758
1627.82891	0.467323481
1625.90021	0.467477004
1623.9715	0.467389519
1622.04279	0.467564461
1620.11408	0.467739287
1618.18538	0.467728691
1616.25667	0.467903464
1614.32796	0.468109526
1612.39925	0.468217562
1610.47055	0.468468468
1608.54184	0.468468468
1606.61313	0.468478795
1604.68443	0.468652807
1602.75572	0.468663067
1600.82701	0.468923781
1598.8983	0.468933944
1596.9696	0.469194313
1595.04089	0.469291081
1593.11218	0.469397748
1591.18347	0.46950424
1589.25477	0.469610559
1587.32606	0.469640241
1585.39735	0.469908913
1583.46865	0.469938252
1581.53994	0.470120169
1579.61123	0.470206202
1577.68252	0.470358941
1575.75382	0.470378185
1573.82511	0.470340357
1571.8964	0.470607287
1569.96769	0.470540628
1568.03899	0.470569211
1566.11028	0.470607235
1564.18157	0.470702179
1562.25287	0.471073045
1560.32416	0.471178756
1558.39545	0.471255061
1556.46674	0.471320084
1554.53804	0.471232877
1552.60933	0.471355005
1550.68062	0.471373432
1548.75192	0.471543408
1546.82321	0.471770951
1544.8945	0.471819646
1542.96579	0.471935484
1541.03709	0.472002582
1539.10838	0.472047688
1537.17967	0.47220437
1535.25096	0.472164287
1533.32226	0.472342472
1531.39355	0.472453555
1529.46484	0.472471191
1527.53614	0.472782581
1525.60743	0.472925344
1523.67872	0.47297514
1521.75001	0.473033708
1519.82131	0.473126905
1517.8926	0.473237179
1515.96389	0.473338671
1514.03518	0.473347207
1512.10648	0.473422991
1510.17777	0.473557692
1508.24906	0.473768651
1506.32036	0.47362514
1504.39165	0.473608445
1502.46294	0.473734632
1500.53423	0.473810284
1498.60553	0.474104859
1496.67682	0.474104859
1494.74811	0.474121406
1492.81941	0.47428115
1490.8907	0.474340528
1488.96199	0.474492244
1487.03328	0.47450855
1485.10458	0.474608751
1483.17587	0.474776501
1481.24716	0.474768445
1479.31845	0.474828192
1477.38975	0.47503201
1475.46104	0.474983964
1473.53233	0.475104401
1471.60363	0.475088396
1469.67492	0.475164765
1467.74621	0.475309635
1465.8175	0.475362319
1463.8888	0.475676546
1461.96009	0.475668708
1460.03138	0.475952227
1458.10267	0.476228978
1456.17397	0.476151981
1454.24526	0.476121329
1452.31655	0.476236507
1450.38785	0.476244162
1448.45914	0.476489533
1446.53043	0.476504667
1444.60172	0.476527331
1442.67302	0.476618994
1440.74431	0.476534876
1438.8156	0.476987448
1436.8869	0.477049444
1434.95819	0.47706422
1433.02948	0.477163075
1431.10077	0.477086348
1429.17207	0.477323898
1427.24336	0.477323898
1425.31465	0.477393403
1423.38594	0.477532614
1421.45724	0.477657687
1419.52853	0.477944741
1417.59982	0.477937611
1415.67112	0.478029079
1413.74241	0.478106318
1411.8137	0.47816947
1409.88499	0.478394562
1407.95629	0.47829608
1406.02758	0.478437095
1404.09887	0.478585334
1402.17016	0.478733766
1400.24146	0.478882391
1398.31275	0.479115878
1396.38404	0.479115878
1394.45534	0.479291863
1392.52663	0.479234263
1390.59792	0.479325442
1388.66921	0.479480941
1386.74051	0.479474282
1384.8118	0.479727538
1382.88309	0.479818447
1380.95439	0.479909268
1379.02568	0.480155516
1377.09697	0.47999352
1375.16826	0.480311133
1373.23956	0.480395334
1371.31085	0.480401684
1369.38214	0.480569948
1367.45343	0.480654039
1365.52473	0.48081593
1363.59602	0.481055699
1361.66731	0.480983978
1359.73861	0.481002425
1357.8099	0.480936995
1355.88119	0.481188439
1353.95248	0.481278244
1352.02378	0.481367963
1350.09507	0.48154119
1348.16636	0.481391977
1346.23765	0.481564965
1344.30895	0.481654329
1342.38024	0.481737731
1340.45153	0.481898632
1338.52283	0.481826954
1336.59412	0.481921903
1334.66541	0.482099856
1332.7367	0.482034007
1330.808	0.482205835
1328.87929	0.482134273
1326.95058	0.482139997
1325.02188	0.482383088
1323.09317	0.482543242
1321.16446	0.482780714
1319.23575	0.482697853
1317.30705	0.482775196
1315.37834	0.482929957
1313.44963	0.482847066
1311.52092	0.482924483
1309.59222	0.482841565
1307.66351	0.482996471
1305.7348	0.483151476
1303.8061	0.483146067
1301.87739	0.483456473
1299.94868	0.483528845
1298.01997	0.483596012
1296.09127	0.483746379
1294.16256	0.483813819
1292.23385	0.484042553
1290.30514	0.48411034
1288.37644	0.484178237
1286.44773	0.484324499
1284.51902	0.484309285
1282.59032	0.484450923
1280.66161	0.484676504
1278.7329	0.484572913
1276.80419	0.484952009
1274.87549	0.484922575
1272.94678	0.485130719
1271.01807	0.485250737
1269.08937	0.485357025
1267.16066	0.485615079
1265.23195	0.485875706
1263.30324	0.485904921
1261.37454	0.486215539
1259.44583	0.486062427
1257.51712	0.486094921
1255.58841	0.486297957
1253.65971	0.486159456
1251.731	0.486419344
1249.80229	0.486419344
1247.87359	0.486576069
1245.94488	0.486813734
1244.01617	0.486881435
1242.08746	0.487115544
1240.15876	0.487098385
1238.23005	0.487162387
1236.30134	0.487226582
1234.37263	0.48737247
1232.44393	0.487437186
1230.51522	0.487502097
1228.58651	0.487567204
1226.65781	0.487800774
1224.7291	0.487948761
1222.80039	0.488266081
1220.87168	0.488328823
1218.94298	0.488309048
1217.01427	0.488541843
1215.08556	0.488605442
1213.15686	0.488752556
1211.22815	0.488900273
1209.29944	0.48896115
1207.37073	0.489365352
1205.44203	0.48942754
1203.51332	0.489662302
1201.58461	0.489640884
1199.6559	0.489704101
1197.7272	0.489941034
1195.79849	0.490005215
1193.86978	0.490243902
1191.94108	0.490398045
1190.01237	0.490377887
1188.08366	0.490618972
1186.15495	0.490771665
1184.22625	0.490832158
1182.29754	0.49106669
1180.36883	0.491041334
1178.44012	0.491290437
1176.51142	0.491543529
1174.58271	0.491794506
1172.654	0.491955667
1170.7253	0.492026519
1168.79659	0.492186097
1166.86788	0.492437883
1164.93917	0.492418773
1163.01047	0.492761491
1161.08176	0.492835117
1159.15305	0.492998727
1157.22435	0.4932531
1155.29564	0.493326019
1153.36693	0.493673207
1151.43822	0.493838514
1149.50952	0.494095941
1147.58081	0.494354988
1145.6521	0.494427935
1143.72339	0.494501398
1141.79469	0.494669908
1139.86598	0.494936234
1137.93727	0.495204062
1136.00857	0.49509619
1134.07986	0.495364238
1132.15115	0.495348396
1130.22244	0.495711835
1128.29374	0.49598163
1126.36503	0.496156802
1124.43632	0.496526438
1122.50761	0.49660787
1120.57891	0.496786758
1118.6502	0.497064579
1116.72149	0.497246263
1114.79279	0.497528179
1112.86408	0.497713263
1110.93537	0.4978
1109.00666	0.498189135
1107.07796	0.498380567
1105.14925	0.498574338
1103.22054	0.499078058
1101.29184	0.499381953
1099.36313	0.499689505
1097.43442	0.499896072
1095.50571	0.500104275
1093.57701	0.500418235
1091.6483	0.500524219
1089.71959	0.500841043
1087.79088	0.501265823
1085.86218	0.501376244
1083.93347	0.501806589
1082.00476	0.501920615
1080.07606	0.502142245
1078.14735	0.50247365
1076.21864	0.502698036
1074.28993	0.503139208
1072.36123	0.503364445
1070.43252	0.503916449
1068.50381	0.504252999
1066.5751	0.50437254
1064.6464	0.504711812
1062.71769	0.504943968
1060.78898	0.505506608
1058.86028	0.5060693
1056.93157	0.506298343
1055.00286	0.506634233
1053.07415	0.506858407
1051.14545	0.50708278
1049.21674	0.507641196
1047.28803	0.507866164
1045.35933	0.508203991
1043.43062	0.508542268
1041.50191	0.50877193
1039.5732	0.509446544
1037.6445	0.510013351
1035.71579	0.510576709
1033.78708	0.51103187
1031.85837	0.511596789
1029.92967	0.512048193
1028.00096	0.512608793
1026.07225	0.513049297
1024.14355	0.51326053
1022.21484	0.513579697
1020.28613	0.513898154
1018.35742	0.514323784
1016.42872	0.514412417
1014.50001	0.514829571
1012.5713	0.514910537
1010.64259	0.515432099
1008.71389	0.515838099
1006.78518	0.516249451
1004.85647	0.51665936
1002.92777	0.517082786
1000.99906	0.517399869
999.07035	0.517724289
997.14164	0.518048567
995.21294	0.518713066
993.28423	0.518721261
991.35552	0.519175981
989.42682	0.519973661
987.49811	0.520448549
985.5694	0.521039877
983.64069	0.521537442
981.71199	0.522047419
979.78328	0.522909253
977.85457	0.523564887
975.92586	0.524001795
973.99716	0.52454955
972.06845	0.525090416
970.13974	0.525969608
968.21104	0.526734926
966.28233	0.527612962
964.35362	0.528146453
962.42491	0.528682882
960.49621	0.529222273
958.5675	0.529656127
956.63879	0.530338119
954.71008	0.531148303
952.78138	0.531621937
950.85267	0.532473623
948.92396	0.532987747
946.99526	0.533649289
945.06655	0.534096328
943.13784	0.53456553
941.20913	0.535187424
939.28043	0.535722994
937.35172	0.536285363
935.42301	0.53712441
933.49431	0.537728754
931.5656	0.538344723
929.63689	0.538815117
927.70818	0.539412674
925.77948	0.54
923.85077	0.540455617
921.92206	0.541061526
919.99335	0.541677763
918.06465	0.542181623
916.13594	0.542570499
914.20723	0.542990142
912.27853	0.543442169
910.34982	0.54420817
908.42111	0.544579677
906.4924	0.545116013
904.5637	0.545375471
902.63499	0.54593484
900.70628	0.546156129
898.77757	0.546654665
896.84887	0.547135496
894.92016	0.54762634
892.99145	0.548297214
891.06275	0.548669797
889.13404	0.549224438
887.20533	0.549791867
885.27662	0.55037253
883.34792	0.550458716
881.41921	0.550878356
879.4905	0.551273458
877.5618	0.551303759
875.63309	0.551641587
873.70438	0.5521049
871.77567	0.552347826
869.84697	0.552400981
867.91826	0.552808195
865.98955	0.553221787
864.06084	0.553603442
862.13214	0.55399061
860.20343	0.554383412
858.27472	0.554578755
856.34602	0.55420354
854.41731	0.554194506
852.4886	0.554185351
850.55989	0.554552295
848.63119	0.555092768
846.70248	0.555047619
844.77377	0.554959786
842.84506	0.554871005
840.91636	0.554566563
838.98765	0.554647997
837.05894	0.554947204
835.13024	0.554245283
833.20153	0.554326353
831.27282	0.554365079
829.34411	0.55400558
827.41541	0.553864638
825.4867	0.553542673
823.55799	0.553622015
821.62929	0.553070354
819.70058	0.552513282
817.77187	0.552318424
815.84316	0.551937345
813.91446	0.551552795
811.98575	0.550977944
810.05704	0.550209205
808.12833	0.549621531
806.19963	0.54921842
804.27092	0.548346056
802.34221	0.547426627
800.41351	0.546462063
798.4848	0.545648464
796.55609	0.545454545
794.62738	0.544368601
792.69868	0.543710021
790.76997	0.542820622
788.84126	0.541276596
786.91255	0.540391156
784.98385	0.539311517
783.05514	0.537807986
781.12643	0.536730361
779.19773	0.535002121
777.26902	0.533927057
775.34031	0.533050847
773.4116	0.532176122
771.4829	0.530431107
769.55419	0.529113924
767.62548	0.528023599
765.69678	0.526515152
763.76807	0.525651808
761.83936	0.524590164
759.91065	0.52332913
757.98195	0.522068096
756.05324	0.520824569
754.12453	0.51979781
752.19582	0.518768452
750.26712	0.517532742
748.33841	0.516292848
746.4097	0.515485787
744.481	0.515099957
742.55229	0.514505119
740.62358	0.514126712
738.69487	0.513304721
736.76617	0.512699096
734.83746	0.51187905
732.90875	0.511274935
730.98004	0.510230736
729.05134	0.510052448
727.12263	0.509657594
725.19392	0.509042788
723.26522	0.50864745
721.33651	0.508247882
719.4078	0.508071749
717.47909	0.507664563
715.55039	0.507252947
713.62168	0.50752394
711.69297	0.507572281
709.76427	0.507848569
707.83556	0.507899628
705.90685	0.50748363
703.97814	0.507062147
702.04944	0.506875296
700.12073	0.507163324
698.19202	0.507455507
696.26331	0.507267442
694.33461	0.507324219
692.4059	0.506889764
690.47719	0.506448413
688.54849	0.5065
686.61978	0.50630358
684.69107	0.50712831
682.76236	0.507969152
680.83366	0.507780083
678.90495	0.50758765
676.97624	0.507391763
675.04753	0.507462687
673.11883	0.50726979
671.19012	0.507072905
669.26141	0.50742166
667.33271	0.506940589
665.404	0.507010656
663.47529	0.507082153
661.54658	0.507155123
659.61788	0.506651243
657.68917	0.506721216
655.76046	0.506501182
653.83176	0.50777512
651.90305	0.507859734
649.97434	0.509168704
648.04563	0.508956146
646.11693	0.50904554
644.18822	0.508495909
642.25951	0.508259212
640.3308	0.508659397
638.4021	0.508737864
636.47339	0.508496732
634.54468	0.508586526
632.61598	0.50868984
630.68727	0.50947226
628.75856	0.509938314
626.82985	0.509722222
624.90115	0.510204082
622.97244	0.510699001
621.04373	0.51083815
619.11502	0.510607169
617.18632	0.51035503
615.25761	0.510463378
613.3289	0.509803922
611.4002	0.509878419
609.47149	0.509954058
607.54278	0.510030864
605.61407	0.510505837
603.68537	0.510204082
601.75666	0.511093502
