4999.20917	0.310588235
4997.28046	0.309133489
4995.35176	0.310747664
4993.42305	0.31002331
4991.49434	0.309302326
4989.56564	0.310904872
4987.63693	0.310185185
4985.70822	0.310185185
4983.77951	0.309468822
4981.85081	0.311059908
4979.9221	0.310344828
4977.99339	0.309633028
4976.06468	0.311212815
4974.13598	0.310502283
4972.20727	0.309794989
4970.27856	0.309794989
4968.34986	0.309090909
4966.42115	0.310657596
4964.49244	0.309954751
4962.56373	0.309255079
4960.63503	0.308558559
4958.70632	0.31011236
4956.77761	0.30941704
4954.8489	0.310961969
4952.9202	0.310267857
4950.99149	0.309576837
4949.06278	0.308888889
4947.13408	0.310421286
4945.20537	0.309734513
4943.27666	0.309050773
4941.34795	0.308370044
4939.41925	0.30989011
4937.49054	0.309210526
4935.56183	0.308533917
4933.63313	0.307860262
4931.70442	0.309368192
4929.77571	0.308695652
4927.847	0.30802603
4925.9183	0.307359307
4923.98959	0.308855292
4922.06088	0.308189655
4920.13217	0.307526882
4918.20347	0.309012876
4916.27476	0.308351178
4914.34605	0.307692308
4912.41735	0.309168443
4910.48864	0.308510638
4908.55993	0.307855626
4906.63122	0.309322034
4904.70252	0.308668076
4902.77381	0.308016878
4900.8451	0.307368421
4898.91639	0.308823529
4896.98769	0.308176101
4895.05898	0.307531381
4893.13027	0.308977035
4891.20157	0.308333333
4889.27286	0.307692308
4887.34415	0.307053942
4885.41544	0.306418219
4883.48674	0.307216495
4881.55803	0.306584362
4879.62932	0.306584362
4877.70062	0.305327869
4875.77191	0.306748466
4873.8432	0.306122449
4871.91449	0.305498982
4869.98579	0.306910569
4868.05708	0.306288032
4866.12837	0.305050505
4864.19966	0.307070707
4862.27096	0.306451613
4860.34225	0.30583501
4858.41354	0.307228916
4856.48484	0.306613226
4854.55613	0.306
4852.62742	0.30738523
4850.69871	0.306163022
4848.77001	0.305555556
4846.8413	0.304950495
4844.91259	0.304347826
4842.98388	0.306324111
4841.05518	0.305719921
4839.12647	0.306483301
4837.19776	0.305882353
4835.26906	0.305283757
4833.34035	0.3046875
4831.41164	0.306042885
4829.48293	0.305447471
4827.55423	0.304854369
4825.62552	0.303675048
4823.69681	0.305019305
4821.76811	0.304431599
4819.8394	0.303846154
4817.91069	0.305182342
4815.98198	0.304597701
4814.05328	0.303435115
4812.12457	0.304761905
4810.19586	0.30418251
4808.26715	0.305502846
4806.33845	0.304924242
4804.40974	0.304347826
4802.48103	0.303773585
4800.55233	0.305084746
4798.62362	0.303939962
4796.69491	0.303370787
4794.7662	0.304672897
4792.8375	0.304104478
4790.90879	0.305400372
4788.98008	0.304267161
4787.05137	0.303703704
4785.12267	0.303142329
4783.19396	0.302583026
4781.26525	0.303867403
4779.33655	0.302752294
4777.40784	0.302197802
4775.47913	0.303473492
4773.55042	0.302919708
4771.62172	0.302367942
4769.69301	0.303636364
4767.7643	0.303085299
4765.8356	0.302536232
4763.90689	0.303249097
4761.97818	0.302702703
4760.04947	0.302158273
4758.12077	0.303411131
4756.19206	0.302867384
4754.26335	0.302325581
4752.33464	0.301247772
4750.40594	0.302491103
4748.47723	0.30141844
4746.54852	0.302654867
4744.61982	0.302120141
4742.69111	0.301587302
4740.7624	0.301056338
4738.83369	0.300527241
4736.90499	0.301754386
4734.97628	0.300699301
4733.04757	0.301919721
4731.11886	0.300869565
4729.19016	0.302083333
4727.26145	0.301559792
4725.33274	0.301038062
4723.40404	0.300518135
4721.47533	0.301724138
4719.54662	0.300687285
4717.61791	0.300171527
4715.68921	0.301369863
4713.7605	0.300341297
4711.83179	0.30153322
4709.90308	0.301020408
4707.97438	0.300509338
4706.04567	0.3
4704.11696	0.301184433
4702.18826	0.300168634
4700.25955	0.2996633
4698.33084	0.30033557
4696.40213	0.299832496
4694.47343	0.299331104
4692.54472	0.3
4690.61601	0.299500832
4688.68731	0.299003322
4686.7586	0.300165837
4684.82989	0.299173554
4682.90118	0.298679868
4680.97248	0.299835255
4679.04377	0.298850575
4677.11506	0.298360656
4675.18635	0.299509002
4673.25765	0.299019608
4671.32894	0.298531811
4669.40023	0.297560976
4667.47153	0.298701299
4665.54282	0.299352751
4663.61411	0.298869144
4661.6854	0.298387097
4659.7567	0.297906602
4657.82799	0.29903537
4655.89928	0.298076923
4653.97057	0.2976
4652.04187	0.296650718
4650.11316	0.297770701
4648.18445	0.297297297
4646.25575	0.297939778
4644.32704	0.29699842
4642.39833	0.298107256
4640.46962	0.297637795
4638.54092	0.297169811
4636.61221	0.296238245
4634.6835	0.295774648
4632.7548	0.2953125
4630.82609	0.295950156
4628.89738	0.297045101
4626.96867	0.296124031
4625.03997	0.297213622
4623.11126	0.296296296
4621.18255	0.295839753
4619.25384	0.295384615
4617.32514	0.296466974
4615.39643	0.295558959
4613.46772	0.296183206
4611.53902	0.295731707
4609.61031	0.295281583
4607.6816	0.294832827
4605.75289	0.295454545
4603.82419	0.295007564
4601.89548	0.295625943
4599.96677	0.295180723
4598.03806	0.294736842
4596.10936	0.295352324
4594.18065	0.29491018
4592.25194	0.295522388
4590.32324	0.295081967
4588.39453	0.294642857
4586.46582	0.293768546
4584.53711	0.294814815
4582.60841	0.29394387
4580.6797	0.294985251
4578.75099	0.29455081
4576.82229	0.295154185
4574.89358	0.294721408
4572.96487	0.293859649
4571.03616	0.293430657
4569.10746	0.294032023
4567.17875	0.293604651
4565.25004	0.294202899
4563.32133	0.293777135
4561.39263	0.293352601
4559.46392	0.293948127
4557.53521	0.29352518
4555.60651	0.292682927
4553.6778	0.293696275
4551.74909	0.292857143
4549.82038	0.292439372
4547.89168	0.293447293
4545.96297	0.292613636
4544.03426	0.292198582
4542.10555	0.292786421
4540.17685	0.292372881
4538.24814	0.292957746
4536.31943	0.29254571
4534.39073	0.291725105
4532.46202	0.292717087
4530.53331	0.292307692
4528.6046	0.291492329
4526.6759	0.292479109
4524.74719	0.291666667
4522.81848	0.292649098
4520.88978	0.291839557
4518.96107	0.291034483
4517.03236	0.290633609
4515.10365	0.291208791
4513.17495	0.290809328
4511.24624	0.29001368
4509.31753	0.290983607
4507.38882	0.291553134
4505.46012	0.291156463
4503.53141	0.29036635
4501.6027	0.291327913
4499.674	0.290540541
4497.74529	0.291497976
4495.81658	0.290713324
4493.88787	0.290322581
4491.95917	0.290884718
4490.03046	0.290495315
4488.10175	0.289719626
4486.17304	0.289333333
4484.24434	0.289893617
4482.31563	0.289508632
4480.38692	0.290066225
4478.45822	0.289299868
4476.52951	0.288918206
4474.6008	0.289473684
4472.67209	0.289093298
4470.74339	0.288335518
4468.81468	0.288888889
4466.88597	0.288511749
4464.95727	0.2890625
4463.02856	0.288686606
4461.09985	0.287937743
4459.17114	0.287564767
4457.24244	0.286821705
4455.31373	0.287741935
4453.38502	0.287001287
4451.45631	0.287917738
4449.52761	0.287179487
4447.5989	0.287723785
4445.67019	0.288633461
4443.74149	0.287898089
4441.81278	0.287531807
4439.88407	0.288071066
4437.95536	0.287705957
4436.02666	0.288242731
4434.09795	0.287515763
4432.16924	0.287153652
4430.24053	0.287688442
4428.31183	0.286967419
4426.38312	0.287859825
4424.45441	0.287141074
4422.52571	0.288029925
4420.597	0.287313433
4418.66829	0.286956522
4416.73958	0.286245353
4414.81088	0.286773795
4412.88217	0.286066584
4410.95346	0.285362854
4409.02476	0.286240786
4407.09605	0.285539216
4405.16734	0.286413709
4403.23863	0.285714286
4401.30993	0.285365854
4399.38122	0.285888078
4397.45251	0.285194175
4395.5238	0.286060606
4393.5951	0.285368803
4391.66639	0.285024155
4389.73768	0.284337349
4387.80898	0.284855769
4385.88027	0.284513806
4383.95156	0.28502994
4382.02285	0.284348865
4380.09415	0.285202864
4378.16544	0.28452381
4376.23673	0.284185493
4374.30802	0.284697509
4372.37932	0.284023669
4370.45061	0.284533648
4368.5219	0.283863369
4366.5932	0.283529412
4364.66449	0.28286385
4362.73578	0.283372365
4360.80707	0.283878505
4358.87837	0.283216783
4356.94966	0.28255814
4355.02095	0.283391405
4353.09225	0.282734647
4351.16354	0.283236994
4349.23483	0.282909931
4347.30612	0.282258065
4345.37742	0.283084005
4343.44871	0.282433984
4341.52	0.282932417
4339.59129	0.282285714
4337.66259	0.281641961
4335.73388	0.281321185
4333.80517	0.281818182
4331.87647	0.282312925
4329.94776	0.281674208
4328.01905	0.281355932
4326.09034	0.280721533
4324.16164	0.281214848
4322.23293	0.281705948
4320.30422	0.281390135
4318.37551	0.281879195
4316.44681	0.28125
4314.5181	0.281737194
4312.58939	0.281111111
4310.66069	0.280487805
4308.73198	0.281284607
4306.80327	0.280662983
4304.87456	0.280044101
4302.94586	0.279427943
4301.01715	0.28021978
4299.08844	0.279605263
4297.15974	0.280087527
4295.23103	0.279475983
4293.30232	0.279956427
4291.37361	0.279347826
4289.44491	0.280130293
4287.5162	0.279523294
4285.58749	0.278918919
4283.65878	0.279395901
4281.73008	0.279094828
4279.80137	0.278494624
4277.87266	0.278969957
4275.94396	0.278372591
4274.01525	0.277777778
4272.08654	0.278251599
4270.15783	0.277659574
4268.22913	0.278427205
4266.30042	0.277836691
4264.37171	0.277248677
4262.443	0.277719113
4260.5143	0.277133825
4258.58559	0.276550999
4256.65688	0.277019937
4254.72818	0.276439791
4252.79947	0.276907001
4250.87076	0.276617954
4248.94205	0.277083333
4247.01335	0.276795005
4245.08464	0.277258567
4243.15593	0.276683938
4241.22723	0.277145812
4239.29852	0.27628866
4237.36981	0.276748971
4235.4411	0.276464543
4233.5124	0.275897436
4231.58369	0.275332651
4229.65498	0.275791624
4227.72627	0.275229358
4225.79757	0.274669379
4223.86886	0.275126904
4221.94015	0.275582573
4220.01145	0.275303644
4218.08274	0.274747475
4216.15403	0.275201613
4214.22532	0.275653924
4212.29662	0.275100402
4210.36791	0.274549098
4208.4392	0.275275275
4206.51049	0.274451098
4204.58179	0.274900398
4202.65308	0.274353877
4200.72437	0.274801587
4198.79567	0.274257426
4196.86696	0.273715415
4194.93825	0.274161736
4193.00954	0.273622047
4191.08084	0.274336283
4189.15213	0.273797841
4187.22342	0.27424094
4185.29472	0.27370479
4183.36601	0.273170732
4181.4373	0.273879142
4179.50859	0.273080661
4177.57989	0.272550921
4175.65118	0.272991288
4173.72247	0.273429952
4171.79376	0.272902604
4169.86506	0.272377286
4167.93635	0.271853987
4166.00764	0.272030651
4164.07894	0.271510516
4162.15023	0.272206304
4160.22152	0.271687321
4158.29281	0.272121789
4156.36411	0.271604938
4154.4354	0.272037915
4152.50669	0.271523179
4150.57798	0.271954674
4148.64928	0.271442036
4146.72057	0.270931326
4144.79186	0.271106942
4142.86316	0.270599251
4140.93445	0.271028037
4139.00574	0.270522388
4137.07703	0.270018622
4135.14833	0.270446097
4133.21962	0.269944341
4131.29091	0.27037037
4129.36221	0.270120259
4127.4335	0.270544783
4125.50479	0.270046083
4123.57608	0.269301471
4121.64738	0.269724771
4119.71867	0.27014652
4117.78996	0.269652651
4115.86125	0.269160584
4113.93255	0.269581056
4112.00384	0.269090909
4110.07513	0.268602541
4108.14643	0.268778281
4106.21772	0.268292683
4104.28901	0.26871055
4102.3603	0.268226823
4100.4316	0.267744834
4098.50289	0.268161435
4096.57418	0.267681289
4094.64547	0.268096515
4092.71677	0.267618198
4090.78806	0.268032057
4088.85935	0.267555556
4086.93065	0.267730496
4085.00194	0.267256637
4083.07323	0.266784452
4081.14452	0.267195767
4079.21582	0.266725352
4077.28711	0.267135325
4075.3584	0.266666667
4073.4297	0.26619965
4071.50099	0.266608392
4069.57228	0.266143106
4067.64357	0.266318538
4065.71487	0.265855778
4063.78616	0.266261925
4061.85745	0.265800866
4059.92874	0.265112263
4058.00004	0.265517241
4056.07133	0.265060241
4054.14262	0.265236052
4052.21392	0.265008576
4050.28521	0.265410959
4048.3565	0.264957265
4046.42779	0.265358362
4044.49909	0.264680851
4042.57038	0.264231096
4040.64167	0.264631043
4038.71296	0.265029636
4036.78426	0.264358108
4034.85555	0.26391231
4032.92684	0.264309764
4030.99814	0.263865546
4029.06943	0.263202012
4027.14072	0.263598326
4025.21201	0.263157895
4023.28331	0.263552961
4021.3546	0.263727121
4019.42589	0.263289037
4017.49719	0.263681592
4015.56848	0.263245033
4013.63977	0.262809917
4011.71106	0.262984336
4009.78236	0.26255144
4007.85365	0.26294166
4005.92494	0.262295082
4003.99623	0.262684124
4002.06753	0.262254902
4000.13882	0.261613692
3998.21011	0.261187958
3996.28141	0.261575955
3994.3527	0.261151663
3992.42399	0.261538462
3990.49528	0.261115602
3988.56658	0.261501211
3986.63787	0.260869565
3984.70916	0.261254019
3982.78045	0.260625501
3980.85175	0.261008807
3978.92304	0.260591527
3976.99433	0.260175579
3975.06563	0.259760956
3973.13692	0.259936407
3971.20821	0.25952381
3969.2795	0.259699129
3967.3508	0.259288538
3965.42209	0.259668508
3963.49338	0.260047281
3961.56468	0.259433962
3959.63597	0.259026688
3957.70726	0.259404389
3955.77855	0.258795934
3953.84985	0.259172521
3951.92114	0.258768511
3949.99243	0.258365759
3948.06372	0.258741259
3946.13502	0.258139535
3944.20631	0.258513932
3942.2776	0.257915058
3940.3489	0.258089368
3938.42019	0.258262875
3936.49148	0.257866462
3934.56277	0.257668712
3932.63407	0.258039816
3930.70536	0.257448434
3928.77665	0.257818459
3926.84794	0.257229833
3924.91924	0.257598784
3922.99053	0.257207891
3921.06182	0.256818182
3919.13312	0.256429652
3917.20441	0.256797583
3915.2757	0.256777108
3913.34699	0.256006006
3911.41829	0.256179775
3909.48958	0.255796559
3907.56087	0.255796559
3905.63217	0.255988024
3903.70346	0.255796559
3901.77475	0.256161314
3899.84604	0.255398362
3897.91734	0.255192878
3895.98863	0.255177515
3894.05992	0.254800591
3892.13121	0.254424779
3890.20251	0.254786451
3888.2738	0.254411765
3886.34509	0.254959589
3884.41639	0.254398827
3882.48768	0.254572056
3880.55897	0.254744526
3878.63026	0.254002911
3876.70156	0.253449528
3874.77285	0.253265602
3872.84414	0.253991292
3870.91543	0.253807107
3868.98673	0.253256151
3867.05802	0.253246753
3865.12931	0.252699784
3863.20061	0.252873563
3861.2719	0.25286533
3859.34319	0.253037884
3857.41448	0.252503577
3855.48578	0.25251076
3853.55707	0.252329749
3851.62836	0.252316465
3849.69966	0.252303331
3847.77095	0.251412429
3845.84224	0.25194072
3843.91353	0.251763047
3841.98483	0.251585624
3840.05612	0.251408451
3838.12741	0.251758087
3836.1987	0.251051893
3834.27	0.251048951
3832.34129	0.251221214
3830.41258	0.251217815
3828.48388	0.250694444
3826.55517	0.250866251
3824.62646	0.250866251
3822.69775	0.250866251
3820.76905	0.250519031
3818.84034	0.250517598
3816.91163	0.25
3814.98292	0.249828415
3813.05422	0.249658003
3811.12551	0.249829352
3809.1968	0.249829352
3807.2681	0.249488753
3805.33939	0.249149081
3803.41068	0.248979592
3801.48197	0.249320652
3799.55327	0.248644986
3797.62456	0.248648649
3795.69585	0.248652291
3793.76715	0.248655914
3791.83844	0.248659517
3789.90973	0.248160535
3787.98102	0.247828991
3786.05232	0.248165444
3784.12361	0.247669774
3782.1949	0.248005319
3780.26619	0.248504983
3778.33749	0.247846256
3776.40878	0.247191011
3774.48007	0.247361478
3772.55137	0.247198418
3770.62266	0.247035573
3768.69395	0.246548323
3766.76524	0.24671916
3764.83654	0.246889325
3762.90783	0.246405229
3760.97912	0.246083551
3759.05041	0.246414602
3757.12171	0.245933637
3755.193	0.245773732
3753.26429	0.24609375
3751.33559	0.245442708
3749.40688	0.245614035
3747.47817	0.245136187
3745.54946	0.245136187
3743.62076	0.244990304
3741.69205	0.245016077
3739.76334	0.245028865
3737.83464	0.245186136
3735.90593	0.245028865
3733.97722	0.245041587
3732.04851	0.244741874
3730.11981	0.243809524
3728.1911	0.243979721
3726.26239	0.244303797
3724.33368	0.243840809
3722.40498	0.244010088
3720.47627	0.244025157
3718.54756	0.243412798
3716.61886	0.243107769
3714.69015	0.243107769
3712.76144	0.243107769
3710.83273	0.243277048
3708.90403	0.242990654
3706.97532	0.242857143
3705.04661	0.242555831
3703.1179	0.242255266
3701.1892	0.241955446
3699.26049	0.241826033
3697.33178	0.241995074
3695.40308	0.241697417
3693.47437	0.241697417
3691.54566	0.241697417
3689.61695	0.241548863
3687.68825	0.241421569
3685.75954	0.241147741
3683.83083	0.24102252
3681.90213	0.240729483
3679.97342	0.240729483
3678.04471	0.24026764
3676.116	0.240413877
3674.1873	0.240583232
3672.25859	0.24
3670.32988	0.240169389
3668.40117	0.240048251
3666.47247	0.23963964
3664.54376	0.23966447
3662.61505	0.239377618
3660.68635	0.239689181
3658.75764	0.239091452
3656.82893	0.238948626
3654.90022	0.239117472
3652.97152	0.238521169
3651.04281	0.23880597
3649.1141	0.238663484
3647.18539	0.238406659
3645.25669	0.238151659
3643.32798	0.238038984
3641.39927	0.238207547
3639.47057	0.237926973
3637.54186	0.237647059
3635.61315	0.237367803
3633.68444	0.237367803
3631.75574	0.236919459
3629.82703	0.237198352
3627.89832	0.237089202
3625.96961	0.236842105
3624.04091	0.236872812
3622.1122	0.236872812
3620.18349	0.236289382
3618.25479	0.236596737
3616.32608	0.236183828
3614.39737	0.235909355
3612.46866	0.235772358
3610.53996	0.235635519
3608.61125	0.235225956
3606.68254	0.235260116
3604.75384	0.235294118
3602.82513	0.235023041
3600.89642	0.234752589
3598.96771	0.234482759
3597.03901	0.2347876
3595.1103	0.235091743
3593.18159	0.234822451
3591.25288	0.234553776
3589.32418	0.234553776
3587.39547	0.234285714
3585.46676	0.233751425
3583.53806	0.233788396
3581.60935	0.233522727
3579.68064	0.233825199
3577.75193	0.233560091
3575.82323	0.233163554
3573.89452	0.232899943
3571.96581	0.233333333
3570.0371	0.232768362
3568.1084	0.232768362
3566.17969	0.232374506
3564.25098	0.232414181
3562.32228	0.232022472
3560.39357	0.232192933
3558.46486	0.231932773
3556.53615	0.231673195
3554.60745	0.232102908
3552.67874	0.231843575
3550.75003	0.231584821
3548.82133	0.231326644
3546.89262	0.231197772
3544.96391	0.231368187
3543.0352	0.230982787
3541.1065	0.230726567
3539.17779	0.230470914
3537.24908	0.230215827
3535.32037	0.23038674
3533.39167	0.23013245
3531.46296	0.230005516
3529.53425	0.230429989
3527.60555	0.23030303
3525.67684	0.230049532
3523.74813	0.229796592
3521.81942	0.229967069
3519.89072	0.229714912
3517.96201	0.229463308
3516.0333	0.229212254
3514.10459	0.228836701
3512.17589	0.22913257
3510.24718	0.228882834
3508.31847	0.228633642
3506.38977	0.228384992
3504.46106	0.22826087
3502.53235	0.228431905
3500.60364	0.228184282
3498.67494	0.227813853
3496.74623	0.227567568
3494.81752	0.227321814
3492.88882	0.227076591
3490.96011	0.22737069
3489.0314	0.227125942
3487.10269	0.22688172
3485.17399	0.226516371
3483.24528	0.226809651
3481.31657	0.226566685
3479.38786	0.226203209
3477.45916	0.226495726
3475.53045	0.226254002
3473.60174	0.226425147
3471.67304	0.226184141
3469.74433	0.225823592
3467.81562	0.225583864
3465.88691	0.225755167
3463.95821	0.225516146
3462.0295	0.225158562
3460.10079	0.225329815
3458.17208	0.225092251
3456.24338	0.225263158
3454.31467	0.22490804
3452.38596	0.224671916
3450.45726	0.224436287
3448.52855	0.224201152
3446.59984	0.224372385
3444.67113	0.224137931
3442.74243	0.224308816
3440.81372	0.223958333
3438.88501	0.223608944
3436.95631	0.223260644
3435.0276	0.22343183
3433.09889	0.223084886
3431.17018	0.223255814
3429.24148	0.222910217
3427.31277	0.223080886
3425.38406	0.222736626
3423.45535	0.222907036
3421.52665	0.222564103
3419.59794	0.222734255
3417.66923	0.222789985
3415.74053	0.22244898
3413.81182	0.222109017
3411.88311	0.221882952
3409.9544	0.222052846
3408.0257	0.221827411
3406.09699	0.221490117
3404.16828	0.221153846
3402.23957	0.221323901
3400.31087	0.2209889
3398.38216	0.22115869
3396.45345	0.221216692
3394.52475	0.220883534
3392.59604	0.220440882
3390.66733	0.2205
3388.73862	0.220558882
3386.80992	0.220229198
3384.88121	0.219900498
3382.9525	0.220069548
3381.0238	0.219633118
3379.09509	0.21980198
3377.16638	0.219476026
3375.23767	0.21964462
3373.30897	0.219211823
3371.38026	0.218888342
3369.45155	0.219056974
3367.52284	0.21922511
3365.59414	0.218903036
3363.66543	0.218581907
3361.73672	0.218155198
3359.80802	0.218323587
3357.87931	0.218491484
3355.9506	0.218172983
3354.02189	0.217749758
3352.09319	0.217917676
3350.16448	0.217601547
3348.23577	0.217286335
3346.30706	0.217454195
3344.37836	0.217035611
3342.44965	0.217203268
3340.52094	0.217370441
3338.59224	0.217057978
3336.66353	0.216746411
3334.73482	0.216809933
3332.80611	0.216499762
3330.87741	0.216666667
3328.9487	0.216254753
3327.01999	0.216421452
3325.09129	0.216587678
3323.16258	0.21628017
3321.23387	0.215871516
3319.30516	0.215566038
3317.37646	0.215732454
3315.44775	0.215428034
3313.51904	0.215492958
3311.59033	0.215089035
3309.66163	0.21515435
3307.73292	0.214852872
3305.80421	0.215018657
3303.87551	0.215083799
3301.9468	0.214684015
3300.01809	0.214285714
3298.08938	0.214451135
3296.16068	0.214054554
3294.23197	0.21421976
3292.30326	0.214285714
3290.37455	0.213989876
3288.44585	0.21405604
3286.51714	0.213761468
3284.58843	0.213827839
3282.65973	0.213534522
3280.73102	0.213144683
3278.80231	0.212756264
3276.8736	0.212824011
3274.9449	0.212891512
3273.01619	0.212601995
3271.08748	0.212669683
3269.15878	0.212285456
3267.23007	0.212449256
3265.30136	0.212066637
3263.37265	0.211780576
3261.44395	0.211849192
3259.51524	0.211917563
3257.58653	0.21163311
3255.65782	0.211701653
3253.72912	0.211418376
3251.80041	0.211041852
3249.8717	0.211111111
3247.943	0.210830004
3246.01429	0.210992908
3244.08558	0.211061947
3242.15687	0.210689046
3240.22817	0.210851345
3238.29946	0.210479965
3236.37075	0.21010989
3234.44204	0.210179903
3232.51334	0.209811651
3230.58463	0.209444687
3228.65592	0.209606987
3226.72722	0.209677419
3224.79851	0.209312446
3222.8698	0.209474142
3220.94109	0.209544469
3219.01239	0.209181464
3217.08368	0.209252054
3215.15497	0.208890807
3213.22627	0.209051724
3211.29756	0.20869191
3209.36885	0.208333333
3207.44014	0.208315474
3205.51144	0.208047945
3203.58273	0.208119658
3201.65402	0.207764505
3199.72531	0.207498935
3197.79661	0.207571246
3195.8679	0.207218684
3193.93919	0.207291225
3192.01049	0.207363521
3190.08178	0.207013097
3188.15307	0.207172996
3186.22436	0.206823926
3184.29566	0.20647603
3182.36695	0.206549118
3180.43824	0.206621961
3178.50953	0.206276151
3176.58083	0.205931495
3174.65212	0.206005004
3172.72341	0.205661948
3170.79471	0.205735661
3168.866	0.205894562
3166.93729	0.205967675
3165.00858	0.20562681
3163.07988	0.205287071
3161.15117	0.205360825
3159.22246	0.205022643
3157.29376	0.204685573
3155.36505	0.204759951
3153.43634	0.204834084
3151.50763	0.204907975
3149.57893	0.204573295
3147.65022	0.204323002
3145.72151	0.204397394
3143.7928	0.204065041
3141.8641	0.20413961
3139.93539	0.203726205
3138.00668	0.203883495
3136.07798	0.20355412
3134.14927	0.203629032
3132.22056	0.203301127
3130.29185	0.203294496
3128.36315	0.202968311
3126.43444	0.203125
3124.50573	0.2028
3122.57702	0.202875399
3120.64832	0.202551834
3118.71961	0.202546757
3116.7909	0.202224871
3114.8622	0.202300674
3112.93349	0.201980198
3111.00478	0.201660735
3109.07607	0.201737071
3107.14737	0.201733649
3105.21866	0.201416208
3103.28995	0.201571709
3101.36125	0.201255394
3099.43254	0.201331767
3097.50383	0.200938233
3095.57512	0.201014832
3093.64642	0.201091193
3091.71771	0.20077821
3089.789	0.2004662
3087.86029	0.200465297
3085.93159	0.200542005
3084.00288	0.200309358
3082.07417	0.2003861
3080.14547	0.200077101
3078.21676	0.199692189
3076.28805	0.199769497
3074.35934	0.199386503
3072.43064	0.199464012
3070.50193	0.199159021
3068.57322	0.199312715
3066.64451	0.199008769
3064.71581	0.19908641
3062.7871	0.199163816
3060.85839	0.198786039
3058.92969	0.198484848
3057.00098	0.198184569
3055.07227	0.198187995
3053.14356	0.198266114
3051.21486	0.198343997
3049.28615	0.198496241
3047.35744	0.198198198
3045.42874	0.197901049
3043.50003	0.19760479
3041.57132	0.197683109
3039.64261	0.19738806
3037.71391	0.197392924
3035.7852	0.197099293
3033.85649	0.196806535
3031.92778	0.196587537
3029.99908	0.196666667
3028.07037	0.196745562
3026.14166	0.196454948
3024.21296	0.196165192
3022.28425	0.195948435
3020.35554	0.196027951
3018.42683	0.195739993
3016.49813	0.195524578
3014.56942	0.195604396
3012.64071	0.195318215
3010.712	0.195469492
3008.7833	0.195255474
3006.85459	0.194970845
3004.92588	0.195121951
3002.99718	0.194909091
3001.06847	0.194696695
2999.13976	0.194484761
2997.21105	0.194343727
2995.28235	0.194202899
2993.35364	0.194062274
2991.42493	0.193921852
2989.49623	0.193851718
2987.56752	0.193781634
2985.63881	0.193781634
2983.7101	0.193781634
2981.7814	0.193420101
2979.85269	0.193198263
2977.92398	0.193338161
2975.99527	0.193255983
2974.06657	0.193243734
2972.13786	0.19293775
2970.20915	0.193065693
2968.28045	0.192828394
2966.35174	0.192815249
2964.42303	0.192589875
2962.49432	0.19244868
2960.56562	0.192392099
2958.63691	0.192195478
2956.7082	0.192223837
2954.77949	0.191820485
2952.85079	0.191849982
2950.92208	0.191588785
2948.99337	0.191466475
2947.06467	0.191481747
2945.13596	0.191276368
2943.20725	0.191139693
2941.27854	0.191139693
2939.34984	0.191139693
2937.42113	0.190850608
2935.49242	0.190493209
2933.56372	0.190425152
2931.63501	0.190357143
2929.7063	0.190510168
2927.77759	0.190238689
2925.84889	0.189900427
2923.92018	0.189783611
2921.99147	0.189600283
2920.06276	0.189703808
2918.13406	0.189388616
2916.20535	0.189492119
2914.27664	0.18924581
2912.34794	0.189001044
2910.41923	0.188823325
2908.49052	0.188777277
2906.56181	0.188666206
2904.63311	0.18862069
2902.7044	0.188510492
2900.77569	0.188400824
2898.84698	0.188291681
2896.91828	0.187905706
2894.98957	0.187862257
2893.06086	0.187818986
2891.13216	0.187839674
2889.20345	0.187521194
2887.27474	0.187542316
2885.34603	0.187352046
2883.41733	0.187162162
2881.48862	0.186972663
2879.55991	0.186846543
2877.63121	0.186783547
2875.7025	0.186994609
2873.77379	0.186469202
2871.84508	0.186491935
2869.91638	0.186514592
2867.98767	0.186202277
2866.05896	0.186225343
2864.13025	0.185976628
2862.20155	0.185790527
2860.27284	0.185876083
2858.34413	0.185690516
2856.41543	0.185714286
2854.48672	0.185406302
2852.55801	0.185369083
2850.6293	0.18520964
2848.7006	0.184990125
2846.77189	0.184771907
2844.84318	0.184554974
2842.91447	0.184399478
2840.98577	0.184630414
2839.05706	0.184535413
2837.12835	0.184440843
2835.19965	0.184082821
2833.27094	0.184108527
2831.34223	0.18413415
2829.41352	0.183837733
2827.48482	0.183863709
2825.55611	0.183568678
2823.6274	0.183274591
2821.6987	0.18336
2819.76999	0.18344519
2817.84128	0.183152521
2815.91257	0.182860784
2813.98387	0.18294623
2812.05516	0.182655654
2810.12645	0.182741117
2808.19774	0.182509506
2806.26904	0.182594937
2804.34033	0.182364096
2802.41162	0.182133838
2800.48292	0.181904161
2798.55421	0.181617879
2796.6255	0.181703867
2794.69679	0.18173258
2792.76809	0.181504702
2790.83938	0.181590482
2788.91067	0.181363352
2786.98196	0.181392445
2785.05326	0.181166199
2783.12455	0.180940517
2781.19584	0.180715397
2779.26714	0.180745342
2777.33843	0.180577102
2775.40972	0.180607187
2773.48101	0.180383663
2771.55231	0.180160692
2769.6236	0.179938272
2767.69489	0.180024661
2765.76619	0.179802956
2763.83748	0.179581796
2761.90877	0.179361179
2759.98006	0.179447853
2758.05136	0.179227941
2756.12265	0.179314565
2754.19394	0.179095355
2752.26523	0.178876679
2750.33653	0.178963415
2748.40782	0.178745432
2746.47911	0.178527981
2744.55041	0.178311057
2742.6217	0.178398058
2740.69299	0.178181818
2738.76428	0.178268765
2736.83558	0.178053204
2734.90687	0.177838164
2732.97816	0.177623643
2731.04945	0.177710843
2729.12075	0.177496992
2727.19204	0.177584135
2725.26333	0.177370948
2723.33463	0.177105184
2721.40592	0.176893146
2719.47721	0.176980568
2717.5485	0.176769185
2715.6198	0.176558306
2713.69109	0.176645815
2711.76238	0.176733115
2709.83368	0.176523031
2707.90497	0.176016622
2705.97626	0.176104358
2704.04755	0.175895765
2702.11885	0.175983437
2700.19014	0.17577548
2698.26143	0.175568014
2696.33272	0.175361037
2694.40402	0.175448926
2692.47531	0.175242576
2690.5466	0.175036711
2688.6179	0.17512467
2686.68919	0.174919426
2684.76048	0.174714662
2682.83177	0.174751607
2680.90307	0.174547577
2678.97436	0.174344023
2677.04565	0.174432149
2675.11694	0.174229203
2673.18824	0.174026729
2671.25953	0.173824724
2669.33082	0.173623188
2667.40212	0.173711639
2665.47341	0.173560891
2663.5447	0.173310225
2661.61599	0.173398731
2659.68729	0.173198847
2657.75858	0.172999424
2655.82987	0.173087982
2653.90117	0.172889144
2651.97246	0.172977625
2650.04375	0.17277937
2648.11504	0.172581568
2646.18634	0.172334953
2644.25763	0.172423637
2642.32892	0.172226975
2640.40021	0.17203076
2638.47151	0.171834993
2636.5428	0.171972712
2634.61409	0.171777399
2632.68539	0.17158253
2630.75668	0.171671388
2628.82797	0.17147708
2626.89926	0.171565856
2624.97056	0.171372106
2623.04185	0.171130533
2621.11314	0.170937764
2619.18443	0.170745429
2617.25573	0.170553526
2615.32702	0.170362054
2613.39831	0.17045136
2611.46961	0.170212766
2609.5409	0.17006993
2607.61219	0.169879855
2605.68348	0.169921875
2603.75478	0.169732441
2601.82607	0.169821826
2599.89736	0.169632925
2597.96865	0.169491525
2596.03995	0.169303358
2594.11124	0.169392847
2592.18253	0.169158361
2590.25383	0.168971239
2588.32512	0.16878453
2586.39641	0.168874172
2584.4677	0.168687982
2582.539	0.168731076
2580.61029	0.168545505
2578.68158	0.168360341
2576.75288	0.168175583
2574.82417	0.16799123
2572.89546	0.168081029
2570.96675	0.167851285
2569.03805	0.167667941
2567.10934	0.167757774
2565.18063	0.167574932
2563.25192	0.167392488
2561.32322	0.167482327
2559.39451	0.16730038
2557.4658	0.167118828
2555.5371	0.166892441
2553.60839	0.166711773
2551.67968	0.166531495
2549.75097	0.166621658
2547.82227	0.166666667
2545.89356	0.166487069
2543.96485	0.166307858
2542.03614	0.166129032
2540.10744	0.166219119
2538.17873	0.166040773
2536.25002	0.165862808
2534.32132	0.165640888
2532.39261	0.16546378
2530.4639	0.165509877
2528.53519	0.165333333
2526.60649	0.165157166
2524.67778	0.165247472
2522.74907	0.16507177
2520.82037	0.164896442
2518.89166	0.164721485
2516.96295	0.164768212
2515.03424	0.164593808
2513.10554	0.164419773
2511.17683	0.164510166
2509.24812	0.164336587
2507.31941	0.164163373
2505.39071	0.163990524
2503.462	0.163774974
2501.53329	0.163602941
2499.60459	0.163693599
2497.67588	0.163479172
2495.74717	0.163569746
2493.81846	0.163398693
2491.88976	0.163227997
2489.96105	0.163015128
2488.03234	0.162845232
2486.10363	0.162935971
2484.17493	0.162766511
2482.24622	0.16255518
2480.31751	0.162645914
2478.38881	0.162477326
2476.4601	0.162309086
2474.53139	0.162357808
2472.60268	0.162190083
2470.67398	0.161980913
2468.74527	0.161813965
2466.81656	0.161904762
2464.88786	0.161738236
2462.95915	0.161572052
2461.03044	0.161364802
2459.10173	0.161199385
2457.17303	0.16124904
2455.24432	0.161084122
2453.31561	0.16091954
2451.3869	0.160755295
2449.4582	0.160805301
2447.52949	0.160641548
2445.60078	0.160732452
2443.67208	0.160528321
2441.74337	0.160365389
2439.81466	0.16016219
2437.88595	0.160253165
2435.95725	0.160091047
2434.02854	0.159929257
2432.09983	0.159727479
2430.17112	0.159566423
2428.24242	0.159365559
2426.31371	0.15945674
2424.385	0.159296482
2422.4563	0.159096612
2420.52759	0.158937077
2418.59888	0.158988483
2416.67017	0.158829415
2414.74147	0.15892054
2412.81276	0.158722236
2410.88405	0.158563949
2408.95535	0.158405978
2407.02664	0.15824832
2405.09793	0.158300199
2403.16922	0.158142999
2401.24052	0.157946938
2399.31181	0.157790438
2397.3831	0.157634249
2395.45439	0.157439446
2393.52569	0.157530864
2391.59698	0.157375432
2389.66827	0.157466732
2387.73957	0.157272951
2385.81086	0.157118269
2383.88215	0.156925344
2381.95344	0.156771344
2380.02474	0.156617647
2378.09603	0.156670747
2376.16732	0.156517486
2374.23861	0.156364525
2372.30991	0.156455943
2370.3812	0.156303341
2368.45249	0.156151035
2366.52379	0.155999027
2364.59508	0.155809431
2362.66637	0.155658086
2360.73766	0.15571186
2358.80896	0.155765504
2356.88025	0.155614714
2354.95154	0.155426638
2353.02284	0.155239015
2351.09413	0.155089243
2349.16542	0.154902433
2347.23671	0.154753309
2345.30801	0.154807692
2343.3793	0.154696133
2341.45059	0.154787617
2339.52188	0.154639175
2337.59318	0.154454023
2335.66447	0.154269314
2333.73576	0.154085045
2331.80706	0.154176611
2329.87835	0.153992849
2327.94964	0.153846154
2326.02093	0.153663178
2324.09223	0.153480637
2322.16352	0.153298529
2320.23481	0.153390232
2318.3061	0.153208619
2316.3774	0.153263955
2314.44869	0.15308292
2312.51998	0.1529384
2310.59128	0.152993871
2308.66257	0.152849741
2306.73386	0.15266996
2304.80515	0.152526439
2302.87645	0.152347418
2300.94774	0.152204503
2299.01903	0.152260483
2297.09033	0.15211795
2295.16162	0.152173913
2293.23291	0.152031761
2291.3042	0.151889874
2289.3755	0.151748252
2287.44679	0.151839776
2285.51808	0.151698464
2283.58937	0.151522194
2281.66067	0.151346332
2279.73196	0.151205937
2277.80325	0.151065802
2275.87455	0.151122425
2273.94584	0.150982659
2272.01713	0.150843151
2270.08842	0.150669128
2268.15972	0.150760719
2266.23101	0.150621833
2264.3023	0.150448585
2262.37359	0.150310274
2260.44489	0.150137741
2258.51618	0.150229358
2256.58747	0.150057274
2254.65877	0.149885584
2252.73006	0.149714286
2250.80135	0.149577529
2248.87264	0.149406934
2246.94394	0.149464571
2245.01523	0.149294492
2243.08652	0.149124801
2241.15782	0.149182561
2239.22911	0.149013382
2237.3004	0.149037373
2235.37169	0.148868778
2233.44299	0.148700565
2231.51428	0.14849921
2229.58557	0.148557259
2227.65686	0.148390002
2225.72816	0.148223122
2223.79945	0.148281285
2221.87074	0.148114901
2219.94204	0.14794889
2218.01333	0.148007165
2216.08462	0.147841646
2214.15591	0.147643511
2212.22721	0.147478804
2210.2985	0.147314464
2208.36979	0.14715049
2206.44108	0.147209251
2204.51238	0.147078427
2202.58367	0.146915224
2200.65496	0.147006652
2198.72626	0.146843854
2196.79755	0.146681416
2194.86884	0.146551724
2192.94013	0.146389932
2191.01143	0.146449052
2189.08272	0.146287729
2187.15401	0.146379045
2185.22531	0.146250275
2183.2966	0.146089631
2181.36789	0.14596137
2179.43918	0.145801359
2177.51048	0.145892662
2175.58177	0.145733042
2173.65306	0.145355191
2171.72435	0.145196507
2169.79565	0.145287958
2167.86694	0.14537925
2165.93823	0.145220988
2164.00953	0.145094627
2162.08082	0.144936984
2160.15211	0.144779683
2158.2234	0.144654088
2156.2947	0.144528711
2154.36599	0.144620048
2152.43728	0.144463668
2150.50857	0.144370002
2148.57987	0.144307626
2146.65116	0.144122731
2144.72245	0.144091596
2142.79375	0.14390507
2140.86504	0.143810549
2138.93633	0.143747314
2137.00762	0.143593046
2135.07892	0.143439108
2133.15021	0.14353042
2131.2215	0.143376846
2129.2928	0.14319299
2127.36409	0.143040137
2125.43538	0.142887609
2123.50667	0.142978905
2121.57797	0.142826735
2119.64926	0.142674888
2117.72055	0.142553644
2115.79184	0.142402377
2113.86314	0.14246343
2111.93443	0.142524354
2110.00572	0.142373598
2108.07702	0.142193112
2106.14831	0.142043056
2104.2196	0.141893316
2102.29089	0.141954507
2100.36219	0.141805176
2098.43348	0.141656158
2096.50477	0.141717405
2094.57606	0.141568792
2092.64736	0.14142049
2090.71865	0.141272499
2088.78994	0.141095318
2086.86124	0.140948006
2084.93253	0.140980188
2083.00382	0.140833333
2081.07511	0.140657511
2079.14641	0.140719185
2077.2177	0.14057309
2075.28899	0.140605558
2073.36029	0.140459913
2071.43158	0.140521523
2069.50287	0.140405294
2067.57416	0.140318248
2065.64546	0.14017341
2063.71675	0.13997114
2061.78804	0.139769452
2059.85933	0.139802632
2057.93063	0.13963039
2056.00192	0.139692308
2054.07321	0.13952059
2052.14451	0.139377814
2050.2158	0.13923533
2048.28709	0.139297386
2046.35838	0.139155274
2044.42968	0.139217285
2042.50097	0.139075545
2040.57226	0.138934093
2038.64355	0.13876473
2036.71485	0.138623909
2034.78614	0.138455301
2032.85743	0.138371151
2030.92873	0.138315107
2029.00002	0.138433515
2027.07131	0.138237672
2025.1426	0.138216303
2023.2139	0.138049174
2021.28519	0.137910207
2019.35648	0.138000402
2017.42778	0.137861736
2015.49907	0.137723349
2013.57036	0.137585239
2011.64165	0.137447405
2009.71295	0.137309848
2007.78424	0.137172565
2005.85553	0.137235318
2003.92682	0.137098384
2001.99812	0.136989033
2000.06941	0.13685259
1998.1407	0.136716418
1996.212	0.136607675
1994.28329	0.136499106
1992.35458	0.136417792
1990.42587	0.136480857
1988.49717	0.136318605
1986.56846	0.13618369
1984.63975	0.136075949
1982.71104	0.135968379
1980.78234	0.135834156
1978.85363	0.135726968
1976.92492	0.135790304
1974.99622	0.13568334
1973.06751	0.135549872
1971.1388	0.135443287
1969.21009	0.135336869
1967.28139	0.135230618
1965.35268	0.135098039
1963.42397	0.13504508
1961.49527	0.134981362
1959.56656	0.13497053
1957.63785	0.134785168
1955.70914	0.134532655
1953.78044	0.134439024
1951.85173	0.13447671
1949.92302	0.134345794
1947.99431	0.134409648
1946.06561	0.134279052
1944.1369	0.134200816
1942.20819	0.134096643
1940.27949	0.134108527
1938.35078	0.133926843
1936.42207	0.13379737
1934.49336	0.133668148
1932.56466	0.133539174
1930.63595	0.133410449
1928.70724	0.133500289
1926.77853	0.133397498
1924.84983	0.133320508
1922.92112	0.133217993
1920.99241	0.13314121
1919.06371	0.133064516
1917.135	0.133128717
1915.20629	0.132924727
1913.27758	0.132746748
1911.34888	0.132670617
1909.42017	0.132569245
1907.49146	0.132251908
1905.56276	0.132100648
1903.63405	0.132165302
1901.70534	0.1320647
1899.77663	0.132154402
1897.84793	0.132053962
1895.91922	0.131978731
1893.99051	0.131878558
1892.0618	0.131968146
1890.1331	0.131893121
1888.20439	0.13176827
1886.27568	0.131429652
1884.34698	0.131280695
1882.41827	0.131181578
1880.48956	0.131271218
1878.56085	0.131172258
1876.63215	0.130885122
1874.70344	0.130786601
1872.77473	0.130900884
1870.84602	0.130712808
1868.91732	0.130688229
1866.98861	0.130516432
1865.0599	0.13048369
1863.1312	0.130524345
1861.20249	0.130215154
1859.27378	0.130117779
1857.34507	0.129996264
1855.41637	0.130061579
1853.48766	0.129940343
1851.55895	0.129843517
1849.63025	0.129795158
1847.70154	0.129795158
1845.77283	0.129843517
1843.84412	0.129746835
1841.91542	0.12950576
1839.98671	0.129265579
1838.058	0.129121897
1836.12929	0.129211403
1834.20059	0.129139685
1832.27188	0.129139685
1830.34317	0.128954672
1828.41447	0.129020333
1826.48576	0.1289012
1824.55705	0.128758532
1822.62834	0.128592483
1820.69964	0.128450497
1818.77093	0.128539904
1816.84222	0.128469031
1814.91351	0.128214548
1812.98481	0.128191001
1811.0561	0.128167462
1809.12739	0.128073394
1807.19869	0.127956004
1805.26998	0.127725857
1803.34127	0.127749267
1801.41256	0.127589368
1799.48386	0.127565982
1797.55515	0.127495878
1795.62644	0.127519238
1793.69774	0.12742941
1791.76903	0.127452778
1789.84032	0.127312695
1787.91161	0.127219476
1785.98291	0.127059685
1784.0542	0.126899835
1782.12549	0.126716719
1780.19678	0.126693519
1778.26808	0.126510436
1776.33937	0.126556777
1774.41066	0.126535852
1772.48196	0.126468429
1770.55325	0.126445219
1768.62454	0.126306141
1766.69583	0.126190476
1764.76713	0.126144269
1762.83842	0.126030408
1760.90971	0.125916422
1758.981	0.125939505
1757.0523	0.125848468
1755.12359	0.125619835
1753.19488	0.125529174
1751.26618	0.125484407
1749.33747	0.125300314
1747.40876	0.125369822
1745.48005	0.125300759
1743.55135	0.125092661
1741.62264	0.125092799
1739.69393	0.125023221
1737.76523	0.124953514
1735.83652	0.125
1733.90781	0.124906786
1731.9791	0.124860439
1730.0504	0.12469846
1728.12169	0.12462963
1726.19298	0.124422259
1724.26427	0.124446086
1722.33557	0.124308373
1720.40686	0.124308373
1718.47815	0.124146836
1716.54945	0.123986735
1714.62074	0.123966942
1712.69203	0.123947272
1710.76332	0.123858239
1708.83462	0.123700055
1706.90591	0.12379216
1704.9772	0.123679417
1703.04849	0.123474777
1701.11979	0.123519767
1699.19108	0.123340004
1697.26237	0.123389584
1695.33367	0.123076923
1693.40496	0.123082476
1691.47625	0.123018732
1689.54754	0.122952295
1687.61884	0.122816496
1685.69013	0.122791201
1683.76142	0.122610891
1681.83272	0.122570194
1679.90401	0.122328004
1677.9753	0.122306034
1676.04659	0.12217032
1674.11789	0.122148374
1672.18918	0.121924942
1670.26047	0.121946839
1668.33176	0.121815572
1666.40306	0.121798316
1664.47435	0.121776504
1662.54564	0.121597421
1660.61694	0.121510379
1658.68823	0.121466905
1656.75952	0.121304426
1654.83081	0.121359223
1652.90211	0.121310295
1650.9734	0.121250225
1649.04469	0.121277359
1647.11598	0.121119684
1645.18728	0.120967742
1643.25857	0.120930233
1641.32986	0.120843761
1639.40116	0.120729744
1637.47245	0.120745253
1635.54374	0.120609319
1633.61503	0.120415101
1631.68633	0.120378639
1629.75762	0.120357143
1627.82891	0.120400143
1625.90021	0.120264475
1623.9715	0.120107239
1622.04279	0.12006432
1620.11408	0.120021432
1618.18538	0.119885653
1616.25667	0.119685602
1614.32796	0.119714541
1612.39925	0.119586526
1610.47055	0.119586526
1608.54184	0.119408305
1606.61313	0.119365758
1604.68443	0.119323241
1602.75572	0.119280755
1600.82701	0.119238299
1598.8983	0.119174671
1596.9696	0.11913229
1595.04089	0.118891061
1593.11218	0.118806606
1591.18347	0.118680149
1589.25477	0.118731171
1587.32606	0.118626062
1585.39735	0.118698036
1583.46865	0.118593142
1581.53994	0.118509361
1579.61123	0.118488434
1577.68252	0.118353648
1575.75382	0.118270079
1573.82511	0.118258724
1571.8964	0.117978517
1569.96769	0.117978517
1568.03899	0.118009145
1566.11028	0.117843344
1564.18157	0.117781288
1562.25287	0.117729749
1560.32416	0.117688513
1558.39545	0.117729996
1556.46674	0.117595359
1554.53804	0.117595513
1552.60933	0.117410324
1550.68062	0.117307692
1548.75192	0.117112393
1546.82321	0.117153348
1544.8945	0.117162872
1542.96579	0.117017544
1541.03709	0.116903633
1539.10838	0.116874014
1537.17967	0.11687631
1535.25096	0.116733554
1533.32226	0.11667248
1531.39355	0.116724739
1529.46484	0.116643454
1527.53614	0.116530221
1525.60743	0.116437162
1523.67872	0.116230366
1521.75001	0.116197798
1519.82131	0.115962277
1517.8926	0.116015352
1515.96389	0.115914241
1514.03518	0.115853659
1512.10648	0.11589404
1510.17777	0.115861106
1508.24906	0.115673598
1506.32036	0.115767417
1504.39165	0.115598886
1502.46294	0.115531619
1500.53423	0.115397984
1498.60553	0.115344468
1496.67682	0.115364538
1494.74811	0.115264256
1492.81941	0.115090403
1490.8907	0.115056571
1488.96199	0.114922514
1487.03328	0.114976518
1485.10458	0.114836692
1483.17587	0.114623133
1481.24716	0.114643043
1479.31845	0.114568846
1477.38975	0.114574264
1475.46104	0.114485166
1473.53233	0.114355657
1471.60363	0.114240728
1469.67492	0.114220745
1467.74621	0.114125678
1465.8175	0.114090431
1463.8888	0.113955119
1461.96009	0.113975101
1460.03138	0.113843992
1458.10267	0.113772455
1456.17397	0.113576334
1454.24526	0.113472686
1452.31655	0.113429173
1450.38785	0.113389415
1448.45914	0.113369546
1446.53043	0.113465243
1444.60172	0.11336599
1442.67302	0.113286713
1440.74431	0.113151452
1438.8156	0.11295972
1436.8869	0.112923023
1434.95819	0.112843876
1433.02948	0.112725363
1431.10077	0.112725363
1429.17207	0.112725363
1427.24336	0.112725363
1425.31465	0.112609457
1423.38594	0.112552595
1421.45724	0.11257464
1419.52853	0.11242083
1417.59982	0.112264649
1415.67112	0.112185687
1413.74241	0.112205417
1411.8137	0.112108413
1409.88499	0.112031002
1407.95629	0.111953456
1406.02758	0.111875772
1404.09887	0.111778209
1402.17016	0.111857219
1400.24146	0.111779271
1398.31275	0.111838613
1396.38404	0.111661653
1394.45534	0.111405836
1392.52663	0.111268103
1390.59792	0.111209179
1388.66921	0.111268103
1386.74051	0.111111111
1384.8118	0.111228814
1382.88309	0.111169931
1380.95439	0.111130711
1379.02568	0.111111111
1377.09697	0.110954313
1375.16826	0.110993471
1373.23956	0.110973888
1371.31085	0.110934744
1369.38214	0.110719323
1367.45343	0.110523533
1365.52473	0.110543018
1363.59602	0.110386175
1361.66731	0.110327811
1359.73861	0.110230674
1357.8099	0.110290237
1355.88119	0.110232068
1353.95248	0.110193322
1352.02378	0.110135254
1350.09507	0.110057925
1348.16636	0.11
1346.23765	0.109766789
1344.30895	0.109709078
1342.38024	0.109689855
1340.45153	0.109689855
1338.52283	0.109651428
1336.59412	0.109555478
1334.66541	0.109440559
1332.7367	0.109344978
1330.808	0.109287709
1328.87929	0.109230501
1326.95058	0.109017966
1325.02188	0.109017966
1323.09317	0.109017966
1321.16446	0.109036985
1319.23575	0.109075044
1317.30705	0.108919532
1315.37834	0.108782958
1313.44963	0.108646288
1311.52092	0.108665269
1309.59222	0.108509523
1307.66351	0.108528487
1305.7348	0.108410561
1303.8061	0.108292512
1301.87739	0.108174339
1299.94868	0.108074969
1298.01997	0.108150745
1296.09127	0.107875811
1294.16256	0.107951553
1292.23385	0.107695011
1290.30514	0.107808653
1288.37644	0.107727513
1286.44773	0.107665198
1284.51902	0.10777915
1282.59032	0.107559166
1280.66161	0.107534489
1278.7329	0.107332625
1276.80419	0.107168204
1274.87549	0.1072
1272.94678	0.107091946
1271.01807	0.107059875
1269.08937	0.106944195
1267.16066	0.106904633
1265.23195	0.106884058
1263.30324	0.106928532
1261.37454	0.106720087
1259.44583	0.106642402
1257.51712	0.106572259
1255.58841	0.106483158
1253.65971	0.106290672
1251.731	0.106213873
1249.80229	0.106213873
1247.87359	0.106290672
1245.94488	0.106225118
1244.01617	0.106178656
1242.08746	0.105950653
1240.15876	0.10588449
1238.23005	0.105856675
1236.30134	0.10582878
1234.37263	0.105820106
1232.44393	0.105609355
1230.51522	0.105600293
1228.58651	0.105407883
1226.65781	0.105214837
1224.7291	0.105205076
1222.80039	0.105011054
1220.87168	0.105020303
1218.94298	0.105029586
1217.01427	0.104834229
1215.08556	0.10467706
1213.15686	0.104499814
1211.22815	0.104547149
1209.29944	0.104388422
1207.37073	0.10424855
1205.44203	0.104483211
1203.51332	0.104342922
1201.58461	0.104201997
1199.6559	0.104060434
1197.7272	0.104107515
1195.79849	0.104154809
1193.86978	0.10401217
1191.94108	0.103678292
1190.01237	0.103514133
1188.08366	0.103388857
1186.15495	0.10328278
1184.22625	0.103195995
1182.29754	0.103148542
1180.36883	0.103060829
1178.44012	0.102872671
1176.51142	0.103052693
1174.58271	0.102843787
1172.654	0.102674214
1170.7253	0.102523968
1168.79659	0.102373014
1166.86788	0.102241447
1164.93917	0.102306328
1163.01047	0.102153725
1161.08176	0.102020602
1159.15305	0.101866561
1157.22435	0.101732033
1155.29564	0.10181673
1153.36693	0.101521826
1151.43822	0.101425989
1149.50952	0.101148499
1147.58081	0.101091791
1145.6521	0.101034693
1143.72339	0.100956646
1141.79469	0.100878089
1139.86598	0.100532351
1137.93727	0.1004313
1136.00857	0.100329625
1134.07986	0.100062022
1132.15115	0.1
1130.22244	0.099750104
1128.29374	0.099539941
1126.36503	0.099538009
1124.43632	0.099367089
1122.50761	0.099194574
1120.57891	0.098828541
1118.6502	0.09869407
1116.72149	0.098343017
1114.79279	0.098225876
1112.86408	0.097889928
1110.93537	0.097811816
1109.00666	0.097512657
1107.07796	0.097474524
1105.14925	0.097392467
1103.22054	0.097085202
1101.29184	0.097181511
1099.36313	0.096986177
1097.43442	0.096928328
1095.50571	0.097031963
1093.57701	0.096862835
1091.6483	0.096692696
1089.71959	0.096521539
1087.79088	0.096602727
1085.86218	0.096519722
1083.93347	0.096458527
1082.00476	0.096419377
1080.07606	0.096122209
1078.14735	0.096035866
1076.21864	0.095926101
1074.28993	0.095769962
1072.36123	0.095544437
1070.43252	0.095294961
1068.50381	0.09504429
1066.5751	0.095055209
1064.6464	0.094825511
1062.71769	0.094858798
1060.78898	0.094627299
1058.86028	0.094591317
1056.93157	0.094463332
1055.00286	0.094312105
1053.07415	0.094114786
1051.14545	0.093917275
1049.21674	0.093742391
1047.28803	0.093567251
1045.35933	0.093391856
1043.43062	0.093216203
1041.50191	0.093040293
1039.5732	0.092886825
1037.6445	0.092710372
1035.71579	0.092801175
1033.78708	0.092624357
1031.85837	0.092447278
1029.92967	0.092269939
1028.00096	0.092047128
1026.07225	0.091779141
1024.14355	0.091711623
1022.21484	0.091376776
1020.28613	0.091287323
1018.35742	0.090953545
1016.42872	0.090842491
1014.50001	0.090709583
1012.5713	0.090311587
1010.64259	0.090136054
1008.71389	0.089939394
1006.78518	0.089765304
1004.85647	0.089415176
1002.92777	0.089328827
1000.99906	0.089044402
999.07035	0.088781665
997.14164	0.08854041
995.21294	0.088320463
993.28423	0.087901473
991.35552	0.087744743
989.42682	0.087608906
987.49811	0.087515152
985.5694	0.087220603
983.64069	0.086723508
981.71199	0.086510264
979.78328	0.086092715
977.85457	0.085735403
975.92586	0.085622371
973.99716	0.085508327
972.06845	0.085350636
970.13974	0.085127692
968.21104	0.084881969
966.28233	0.084592145
964.35362	0.084300858
962.42491	0.084008097
960.49621	0.08348135
958.5675	0.083206107
956.63879	0.082971662
954.71008	0.082756854
952.78138	0.082582969
950.85267	0.082428941
948.92396	0.082316281
946.99526	0.081744581
945.06655	0.081493165
943.13784	0.08128144
941.20913	0.081109925
939.28043	0.080979284
937.35172	0.080618893
935.42301	0.080295971
933.49431	0.080243498
931.5656	0.07991059
929.63689	0.079785734
927.70818	0.079351536
925.77948	0.078864353
923.85077	0.078635444
921.92206	0.078402798
919.99335	0.0781893
918.06465	0.077995255
916.13594	0.077797726
914.20723	0.077643505
912.27853	0.07720476
910.34982	0.076804442
908.42111	0.076443058
906.4924	0.076437145
904.5637	0.076431084
902.63499	0.07605178
900.70628	0.07594108
898.77757	0.075727513
896.84887	0.075459098
894.92016	0.075185435
892.99145	0.074957411
891.06275	0.074724518
889.13404	0.074486599
887.20533	0.074269623
885.27662	0.074021352
883.34792	0.073767542
881.41921	0.073534765
879.4905	0.073242547
877.5618	0.07328869
875.63309	0.073253193
873.70438	0.073161486
871.77567	0.072602216
869.84697	0.072391221
867.91826	0.07253685
865.98955	0.072684642
864.06084	0.072440945
862.13214	0.072193574
860.20343	0.071913704
858.27472	0.072032193
856.34602	0.072123177
854.41731	0.071807426
852.4886	0.071487264
850.55989	0.071517156
848.63119	0.071517672
846.70248	0.071488294
844.77377	0.071488646
842.84506	0.071428571
840.91636	0.071792693
838.98765	0.071764203
837.05894	0.071704594
835.13024	0.07207596
833.20153	0.071986123
831.27282	0.071864111
829.34411	0.071709663
827.41541	0.072056239
825.4867	0.07196468
823.55799	0.07234798
821.62929	0.072702944
819.70058	0.072580645
817.77187	0.072874494
815.84316	0.073203796
813.91446	0.073536087
811.98575	0.073448905
810.05704	0.073360844
808.12833	0.073271889
806.19963	0.073611111
804.27092	0.074349442
802.34221	0.075058275
800.41351	0.075665577
798.4848	0.076203834
796.55609	0.076671342
794.62738	0.076635514
792.69868	0.077030812
790.76997	0.076958955
788.84126	0.077317187
786.91255	0.078212291
784.98385	0.079069767
783.05514	0.079962808
781.12643	0.080892608
779.19773	0.081319703
777.26902	0.082172702
775.34031	0.082134571
773.4116	0.082483781
771.4829	0.083256244
769.55419	0.083602771
767.62548	0.084409594
765.69678	0.085253456
763.76807	0.085635359
761.83936	0.086476541
759.91065	0.086476541
757.98195	0.086936523
756.05324	0.087436723
754.12453	0.088438508
752.19582	0.089063221
750.26712	0.089648799
748.33841	0.089814815
746.4097	0.090023202
744.481	0.090274546
742.55229	0.090993934
740.62358	0.091249415
738.69487	0.091037072
736.76617	0.0913371
734.83746	0.092111479
732.90875	0.092460882
730.98004	0.092812946
729.05134	0.093167702
727.12263	0.093570058
725.19392	0.093584178
723.26522	0.093553078
721.33651	0.093521676
719.4078	0.094025465
717.47909	0.094534712
715.55039	0.094554455
713.62168	0.094574415
711.69297	0.094641963
709.76427	0.094758065
707.83556	0.094875698
705.90685	0.094994893
703.97814	0.095115681
702.04944	0.095238095
700.12073	0.094791667
698.19202	0.094389093
696.26331	0.094030639
694.33461	0.094199042
692.4059	0.094369973
690.47719	0.094594595
688.54849	0.094277929
686.61978	0.094557449
684.69107	0.094947252
682.76236	0.094730942
680.83366	0.093891403
678.90495	0.094178082
676.97624	0.094470046
675.04753	0.094822571
673.11883	0.095182139
671.19012	0.09495549
669.26141	0.0941247
667.33271	0.093882495
665.404	0.094189602
663.47529	0.094561187
661.54658	0.094316052
659.61788	0.094006309
657.68917	0.09375
655.76046	0.094132818
653.83176	0.093811075
651.90305	0.093482554
649.97434	0.093874834
648.04563	0.094276094
646.11693	0.093941457
644.18822	0.094093407
642.25951	0.094248094
640.3308	0.094405594
638.4021	0.093926554
636.47339	0.094218415
634.54468	0.09444845
632.61598	0.094091904
630.68727	0.093726937
628.75856	0.093492895
626.82985	0.093252464
624.90115	0.092165899
622.97244	0.092607004
621.04373	0.092198582
619.11502	0.092577813
617.18632	0.092158448
615.25761	0.091578087
613.3289	0.091584158
611.4002	0.091438071
609.47149	0.091289782
607.54278	0.091216216
605.61407	0.091993186
603.68537	0.091845494
601.75666	0.092720971
