4999.20917	0.364485981
4997.28046	0.362790698
4995.35176	0.364269142
4993.42305	0.363425926
4991.49434	0.364896074
4989.56564	0.3640553
4987.63693	0.363218391
4985.70822	0.364678899
4983.77951	0.363844394
4981.85081	0.365296804
4979.9221	0.364464692
4977.99339	0.363636364
4976.06468	0.365079365
4974.13598	0.365079365
4972.20727	0.364253394
4970.27856	0.364864865
4968.34986	0.364044944
4966.42115	0.3632287
4964.49244	0.362416107
4962.56373	0.363839286
4960.63503	0.363028953
4958.70632	0.364444444
4956.77761	0.363636364
4954.8489	0.362831858
4952.9202	0.362030905
4950.99149	0.363436123
4949.06278	0.362637363
4947.13408	0.364035088
4945.20537	0.363238512
4943.27666	0.362445415
4941.34795	0.363834423
4939.41925	0.363043478
4937.49054	0.362255965
4935.56183	0.363636364
4933.63313	0.362850972
4931.70442	0.362068966
4929.77571	0.36344086
4927.847	0.362660944
4925.9183	0.361884368
4923.98959	0.362473348
4922.06088	0.361702128
4920.13217	0.363829787
4918.20347	0.362288136
4916.27476	0.361522199
4914.34605	0.360759494
4912.41735	0.362105263
4910.48864	0.361344538
4908.55993	0.360587002
4906.63122	0.361924686
4904.70252	0.3625
4902.77381	0.361746362
4900.8451	0.360995851
4898.91639	0.360248447
4896.98769	0.362318841
4895.05898	0.361570248
4893.13027	0.362886598
4891.20157	0.361396304
4889.27286	0.360655738
4887.34415	0.36196319
4885.41544	0.36122449
4883.48674	0.362525458
4881.55803	0.361788618
4879.62932	0.363083164
4877.70062	0.362348178
4875.77191	0.361616162
4873.8432	0.362903226
4871.91449	0.361445783
4869.98579	0.360721443
4868.05708	0.36
4866.12837	0.360557769
4864.19966	0.361829026
4862.27096	0.361111111
4860.34225	0.36039604
4858.41354	0.359683794
4856.48484	0.358267717
4854.55613	0.36023622
4852.62742	0.359528487
4850.69871	0.360078278
4848.77001	0.359375
4846.8413	0.360623782
4844.91259	0.359922179
4842.98388	0.361165049
4841.05518	0.360465116
4839.12647	0.359073359
4837.19776	0.360308285
4835.26906	0.359615385
4833.34035	0.358925144
4831.41164	0.360153257
4829.48293	0.359464627
4827.55423	0.36
4825.62552	0.359315589
4823.69681	0.360531309
4821.76811	0.359848485
4819.8394	0.359168242
4817.91069	0.360377358
4815.98198	0.359698682
4814.05328	0.358348968
4812.12457	0.359550562
4810.19586	0.360747664
4808.26715	0.359404097
4806.33845	0.358736059
4804.40974	0.359925788
4802.48103	0.359259259
4800.55233	0.360443623
4798.62362	0.359778598
4796.69491	0.358455882
4794.7662	0.359633028
4792.8375	0.358974359
4790.90879	0.358318099
4788.98008	0.359489051
4787.05137	0.358181818
4785.12267	0.359346642
4783.19396	0.358695652
4781.26525	0.359855335
4779.33655	0.358558559
4777.40784	0.35971223
4775.47913	0.359066427
4773.55042	0.359570662
4771.62172	0.358928571
4769.69301	0.35828877
4767.7643	0.359430605
4765.8356	0.358156028
4763.90689	0.357522124
4761.97818	0.358657244
4760.04947	0.358024691
4758.12077	0.358523726
4756.19206	0.357894737
4754.26335	0.359019264
4752.33464	0.357766143
4750.40594	0.357142857
4748.47723	0.35826087
4746.54852	0.357019064
4744.61982	0.358131488
4742.69111	0.357512953
4740.7624	0.356896552
4738.83369	0.357388316
4736.90499	0.357876712
4734.97628	0.357264957
4733.04757	0.35665529
4731.11886	0.3560477
4729.19016	0.356536503
4727.26145	0.355932203
4725.33274	0.357021997
4723.40404	0.358108108
4721.47533	0.357504216
4719.54662	0.356302521
4717.61791	0.35738255
4715.68921	0.35678392
4713.7605	0.357859532
4711.83179	0.356666667
4709.90308	0.357737105
4707.97438	0.358208955
4706.04567	0.357615894
4704.11696	0.356435644
4702.18826	0.355848435
4700.25955	0.356907895
4698.33084	0.356321839
4696.40213	0.356792144
4694.47343	0.355628059
4692.54472	0.356677524
4690.61601	0.357723577
4688.68731	0.356564019
4686.7586	0.355987055
4684.82989	0.357027464
4682.90118	0.355877617
4680.97248	0.356913183
4679.04377	0.355769231
4677.11506	0.3568
4675.18635	0.356230032
4673.25765	0.355095541
4671.32894	0.356120827
4669.40023	0.354992076
4667.47153	0.356012658
4665.54282	0.355450237
4663.61411	0.356466877
4661.6854	0.355345912
4659.7567	0.355799373
4657.82799	0.356807512
4655.89928	0.35625
4653.97057	0.355694228
4652.04187	0.354587869
4650.11316	0.35503876
4648.18445	0.356037152
4646.25575	0.357032457
4644.32704	0.355932203
4642.39833	0.355384615
4640.46962	0.355828221
4638.54092	0.355283308
4636.61221	0.355725191
4634.6835	0.355182927
4632.7548	0.356164384
4630.82609	0.35508346
4628.89738	0.354545455
4626.96867	0.355521936
4625.03997	0.354449472
4623.11126	0.355421687
4621.18255	0.354354354
4619.25384	0.354790419
4617.32514	0.35426009
4615.39643	0.354694486
4613.46772	0.354166667
4611.53902	0.354599407
4609.61031	0.354074074
4607.6816	0.35450517
4605.75289	0.353460972
4603.82419	0.354411765
4601.89548	0.355359765
4599.96677	0.35431918
4598.03806	0.35380117
4596.10936	0.354744526
4594.18065	0.35371179
4592.25194	0.354651163
4590.32324	0.353623188
4588.39453	0.352601156
4586.46582	0.353535354
4584.53711	0.353956835
4582.60841	0.354885057
4580.6797	0.353868195
4578.75099	0.354792561
4576.82229	0.354285714
4574.89358	0.354700855
4572.96487	0.353693182
4571.03616	0.354609929
4569.10746	0.353606789
4567.17875	0.354519774
4565.25004	0.353521127
4563.32133	0.35443038
4561.39263	0.353436185
4559.46392	0.353846154
4557.53521	0.354748603
4555.60651	0.353760446
4553.6778	0.353268428
4551.74909	0.354166667
4549.82038	0.353185596
4547.89168	0.35359116
4545.96297	0.353103448
4544.03426	0.353507565
4542.10555	0.353021978
4540.17685	0.353424658
4538.24814	0.352459016
4536.31943	0.353342428
4534.39073	0.352380952
4532.46202	0.35326087
4530.53331	0.353658537
4528.6046	0.352702703
4526.6759	0.353576248
4524.74719	0.352624495
4522.81848	0.353494624
4520.88978	0.353887399
4518.96107	0.352941176
4517.03236	0.35246996
4515.10365	0.353333333
4513.17495	0.352393617
4511.24624	0.353253652
4509.31753	0.352317881
4507.38882	0.352708058
4505.46012	0.353096179
4503.53141	0.3521682
4501.6027	0.353018373
4499.674	0.352094241
4497.74529	0.352941176
4495.81658	0.353324641
4493.88787	0.352864583
4491.95917	0.353246753
4490.03046	0.352331606
4488.10175	0.351421189
4486.17304	0.352258065
4484.24434	0.352638353
4482.31563	0.35218509
4480.38692	0.352564103
4478.45822	0.353393086
4476.52951	0.352490421
4474.6008	0.352866242
4472.67209	0.351969504
4470.74339	0.352791878
4468.81468	0.351898734
4466.88597	0.352272727
4464.95727	0.351828499
4463.02856	0.352201258
4461.09985	0.35131744
4459.17114	0.351689612
4457.24244	0.35125
4455.31373	0.351620948
4453.38502	0.35199005
4451.45631	0.352795031
4449.52761	0.351920694
4447.5989	0.35105068
4445.67019	0.351851852
4443.74149	0.352216749
4441.81278	0.352579853
4439.88407	0.352147239
4437.95536	0.35128519
4436.02666	0.351648352
4434.09795	0.352439024
4432.16924	0.351581509
4430.24053	0.351941748
4428.31183	0.351089588
4426.38312	0.351874244
4424.45441	0.351025332
4422.52571	0.351383875
4420.597	0.351740696
4418.66829	0.352095808
4416.73958	0.351674641
4414.81088	0.350835322
4412.88217	0.351190476
4410.95346	0.351543943
4409.02476	0.351126928
4407.09605	0.35147929
4405.16734	0.351829988
4403.23863	0.351001178
4401.30993	0.350176263
4399.38122	0.35052755
4397.45251	0.350877193
4395.5238	0.35046729
4393.5951	0.350815851
4391.66639	0.351571595
4389.73768	0.351916376
4387.80898	0.351100811
4385.88027	0.351851852
4383.95156	0.351039261
4382.02285	0.351382488
4380.09415	0.350574713
4378.16544	0.350917431
4376.23673	0.350114416
4374.30802	0.350456621
4372.37932	0.350057013
4370.45061	0.35039818
4368.5219	0.350737798
4366.5932	0.349943375
4364.66449	0.350282486
4362.73578	0.350620068
4360.80707	0.349831271
4358.87837	0.35016835
4356.94966	0.349384099
4355.02095	0.34972067
4353.09225	0.350446429
4351.16354	0.35077951
4349.23483	0.35
4347.30612	0.350332594
4345.37742	0.350663717
4343.44871	0.349889625
4341.52	0.349118943
4339.59129	0.349834983
4337.66259	0.350164654
4335.73388	0.350492881
4333.80517	0.349726776
4331.87647	0.350054526
4329.94776	0.350380849
4328.01905	0.35
4326.09034	0.35032538
4324.16164	0.3495671
4322.23293	0.349514563
4320.30422	0.349137931
4318.37551	0.349462366
4316.44681	0.349785408
4314.5181	0.350107066
4312.58939	0.35042735
4310.66069	0.349680171
4308.73198	0.35
4306.80327	0.350690755
4304.87456	0.349946978
4302.94586	0.35026455
4301.01715	0.350580781
4299.08844	0.349841939
4297.15974	0.350157729
4295.23103	0.350472193
4293.30232	0.34973822
4291.37361	0.350052247
4289.44491	0.349322211
4287.5162	0.349635796
4285.58749	0.348909657
4283.65878	0.349222798
4281.73008	0.348500517
4279.80137	0.348813209
4277.87266	0.349124614
4275.94396	0.349434738
4274.01525	0.34974359
4272.08654	0.350051177
4270.15783	0.349336057
4268.22913	0.349643221
4266.30042	0.348931841
4264.37171	0.349593496
4262.443	0.34989858
4260.5143	0.350202429
4258.58559	0.349494949
4256.65688	0.349798387
4254.72818	0.349094567
4252.79947	0.34939759
4250.87076	0.349699399
4248.94205	0.34965035
4247.01335	0.34995015
4245.08464	0.349253731
4243.15593	0.349553128
4241.22723	0.348860258
4239.29852	0.349159248
4237.36981	0.349457058
4235.4411	0.348768473
4233.5124	0.34906588
4231.58369	0.34936212
4229.65498	0.349657199
4227.72627	0.348973607
4225.79757	0.348292683
4223.86886	0.348588121
4221.94015	0.34888241
4220.01145	0.349175558
4218.08274	0.34946757
4216.15403	0.349758454
4214.22532	0.349083896
4212.29662	0.349038462
4210.36791	0.348368522
4208.4392	0.348659004
4206.51049	0.348948375
4204.58179	0.348282443
4202.65308	0.348571429
4200.72437	0.348859316
4198.79567	0.34914611
4196.86696	0.349431818
4194.93825	0.349386213
4193.00954	0.348727615
4191.08084	0.34901223
4189.15213	0.349295775
4187.22342	0.34864105
4185.29472	0.348924228
4183.36601	0.349206349
4181.4373	0.349487418
4179.50859	0.348837209
4177.57989	0.348794063
4175.65118	0.348148148
4173.72247	0.348428835
4171.79376	0.348708487
4169.86506	0.348666053
4167.93635	0.348943985
4166.00764	0.349541284
4164.07894	0.348901099
4162.15023	0.348858447
4160.22152	0.348222425
4158.29281	0.348498635
4156.36411	0.348773842
4154.4354	0.349048051
4152.50669	0.348101266
4150.57798	0.348375451
4148.64928	0.348648649
4146.72057	0.348920863
4144.79186	0.348878924
4142.86316	0.348254252
4140.93445	0.348525469
4139.00574	0.348795718
4137.07703	0.349065004
4135.14833	0.349333333
4133.21962	0.348404255
4131.29091	0.348672566
4129.36221	0.348939929
4127.4335	0.348017621
4125.50479	0.34828496
4123.57608	0.348551361
4121.64738	0.348816827
4119.71867	0.349081365
4117.78996	0.348471616
4115.86125	0.348432056
4113.93255	0.348695652
4112.00384	0.348958333
4110.07513	0.349220104
4108.14643	0.349480969
4106.21772	0.348576359
4104.28901	0.348537005
4102.3603	0.347938144
4100.4316	0.348198971
4098.50289	0.348458904
4096.57418	0.348717949
4094.64547	0.348976109
4092.71677	0.348381601
4090.78806	0.348343246
4088.85935	0.348600509
4086.93065	0.34856176
4085.00194	0.348817568
4083.07323	0.348229342
4081.14452	0.348191758
4079.21582	0.348446683
4077.28711	0.34840871
4075.3584	0.348662207
4073.4297	0.348914858
4071.50099	0.348875937
4069.57228	0.349127182
4067.64357	0.348547718
4065.71487	0.348798674
4063.78616	0.349048801
4061.85745	0.348472337
4059.92874	0.348434926
4058.00004	0.348684211
4056.07133	0.348646432
4054.14262	0.348894349
4052.21392	0.348856209
4050.28521	0.349102773
4048.3565	0.348534202
4046.42779	0.348497157
4044.49909	0.348742903
4042.57038	0.348705502
4040.64167	0.348949919
4038.71296	0.348387097
4036.78426	0.348350764
4034.85555	0.348594378
4032.92684	0.348837209
4030.99814	0.348
4029.06943	0.349041534
4027.14072	0.349282297
4025.21201	0.349244232
4023.28331	0.348689436
4021.3546	0.348929421
4019.42589	0.348892405
4017.49719	0.349131122
4015.56848	0.349093775
4013.63977	0.349056604
4011.71106	0.348508634
4009.78236	0.348472984
4007.85365	0.34870993
4005.92494	0.348673947
4003.99623	0.348130841
4002.06753	0.34836703
4000.13882	0.34833204
3998.21011	0.347792409
3996.28141	0.348027842
3994.3527	0.348262548
3992.42399	0.348228043
3990.49528	0.348193697
3988.56658	0.348426708
3986.63787	0.348392037
3984.70916	0.348623853
3982.78045	0.348588863
3980.85175	0.348819497
3978.92304	0.34904943
3976.99433	0.349013657
3975.06563	0.349242424
3973.13692	0.349206349
3971.20821	0.349170437
3969.2795	0.348644578
3967.3508	0.348610068
3965.42209	0.348837209
3963.49338	0.34906367
3961.56468	0.349028401
3959.63597	0.348993289
3957.70726	0.349218168
3955.77855	0.349182764
3953.84985	0.348664688
3951.92114	0.348888889
3949.99243	0.348854398
3948.06372	0.349077491
3946.13502	0.34904271
3944.20631	0.349264706
3942.2776	0.34922964
3940.3489	0.349194729
3938.42019	0.349159971
3936.49148	0.349380015
3934.56277	0.349599417
3932.63407	0.349090909
3930.70536	0.349056604
3928.77665	0.349022448
3926.84794	0.348988439
3924.91924	0.348954578
3922.99053	0.349172066
3921.06182	0.349388929
3919.13312	0.349605169
3917.20441	0.349820789
3915.2757	0.348820586
3913.34699	0.348787447
3911.41829	0.348754448
3909.48958	0.348721591
3907.56087	0.349183818
3905.63217	0.34964539
3903.70346	0.350106308
3901.77475	0.350070721
3899.84604	0.350035286
3897.91734	0.349507736
3895.98863	0.349473684
3894.05992	0.349684653
3892.13121	0.349895031
3890.20251	0.349860335
3888.2738	0.350069735
3886.34509	0.350278552
3884.41639	0.349548297
3882.48768	0.349514563
3880.55897	0.349480969
3878.63026	0.349206349
3876.70156	0.349173554
3874.77285	0.349381018
3872.84414	0.349828179
3870.91543	0.350274725
3868.98673	0.35
3867.05802	0.350649351
3865.12931	0.350613915
3863.20061	0.350578625
3861.2719	0.350305499
3859.34319	0.350271003
3857.41448	0.350271003
3855.48578	0.351663272
3853.55707	0.352103121
3851.62836	0.351114112
3849.69966	0.349899261
3847.77095	0.349631614
3845.84224	0.34959893
3843.91353	0.349799733
3841.98483	0.350233489
3840.05612	0.350666667
3838.12741	0.350865513
3836.1987	0.35059761
3834.27	0.350331126
3832.34129	0.35006605
3830.41258	0.35003296
3828.48388	0.349769888
3826.55517	0.34996717
3824.62646	0.350163934
3822.69775	0.350589777
3820.76905	0.35078534
3818.84034	0.351404311
3816.91163	0.35136897
3814.98292	0.351105332
3813.05422	0.349740933
3811.12551	0.349709114
3809.1968	0.350129199
3807.2681	0.350322581
3805.33939	0.350515464
3803.41068	0.350707851
3801.48197	0.350899743
3799.55327	0.350641026
3797.62456	0.350159744
3795.69585	0.349904398
3793.76715	0.350286078
3791.83844	0.350253807
3789.90973	0.350221659
3787.98102	0.350189633
3786.05232	0.350378788
3784.12361	0.350346566
3782.1949	0.350534928
3780.26619	0.350502513
3778.33749	0.350470219
3776.40878	0.350844278
3774.48007	0.350811486
3772.55137	0.350374065
3770.62266	0.350560399
3768.69395	0.350746269
3766.76524	0.350496278
3764.83654	0.350464396
3762.90783	0.350432633
3760.97912	0.350617284
3759.05041	0.350585336
3757.12171	0.351168512
3755.193	0.351567302
3753.26429	0.352398524
3751.33559	0.352796558
3749.40688	0.352760736
3747.47817	0.352941176
3745.54946	0.353337416
3743.62076	0.352654057
3741.69205	0.35154827
3739.76334	0.351302241
3737.83464	0.351907935
3735.90593	0.352300242
3733.97722	0.35205314
3732.04851	0.351383875
3730.11981	0.351529694
3728.1911	0.351497006
3726.26239	0.351674641
3724.33368	0.351641791
3722.40498	0.351399643
3720.47627	0.35136742
3718.54756	0.351126928
3716.61886	0.351095323
3714.69015	0.35147929
3712.76144	0.352454169
3710.83273	0.352420307
3708.90403	0.351971748
3706.97532	0.351525822
3705.04661	0.351493849
3703.1179	0.351667642
3701.1892	0.351635514
3699.26049	0.351398601
3697.33178	0.351367074
3695.40308	0.351335656
3693.47437	0.35171213
3691.54566	0.352292513
3689.61695	0.352668213
3687.68825	0.352226721
3685.75954	0.351585014
3683.83083	0.351351351
3681.90213	0.351522114
3679.97342	0.351894374
3678.04471	0.352468427
3676.116	0.35304248
3674.1873	0.352806415
3672.25859	0.352773013
3670.32988	0.352739726
3668.40117	0.352104664
3666.47247	0.352240499
3664.54376	0.352009055
3662.61505	0.351977401
3660.68635	0.35214447
3658.75764	0.35250987
3656.82893	0.352311161
3654.90022	0.352279122
3652.97152	0.35264342
3651.04281	0.353404615
3649.1141	0.353768279
3647.18539	0.353337072
3645.25669	0.352513966
3643.32798	0.352285396
3641.39927	0.351697273
3639.47057	0.351666667
3637.54186	0.351831299
3635.61315	0.352549889
3633.68444	0.352354571
3631.75574	0.353104213
3629.82703	0.353658537
3627.89832	0.353429204
3625.96961	0.352811466
3624.04091	0.352585259
3622.1122	0.352585259
3620.18349	0.353135314
3618.25479	0.352553542
3616.32608	0.352715304
3614.39737	0.353231106
3612.46866	0.353585112
3610.53996	0.353198469
3608.61125	0.353165939
3606.68254	0.352941176
3604.75384	0.352717391
3602.82513	0.352685838
3600.89642	0.353036876
3598.96771	0.352654388
3597.03901	0.352623039
3595.1103	0.35278228
3593.18159	0.352750809
3591.25288	0.352909483
3589.32418	0.353448276
3587.39547	0.353606028
3585.46676	0.352846402
3583.53806	0.352625938
3581.60935	0.352594971
3579.68064	0.353098291
3577.75193	0.352721451
3575.82323	0.352878465
3573.89452	0.352847259
3571.96581	0.353191489
3570.0371	0.353191489
3568.1084	0.353535354
3566.17969	0.353503185
3564.25098	0.353283898
3562.32228	0.353252247
3560.39357	0.353220697
3558.46486	0.353375527
3556.53615	0.353530032
3554.60745	0.353684211
3552.67874	0.353838065
3550.75003	0.353466387
3548.82133	0.353620147
3546.89262	0.354297694
3544.96391	0.354264783
3543.0352	0.354417146
3541.1065	0.353862213
3539.17779	0.353493222
3537.24908	0.353645833
3535.32037	0.353798127
3533.39167	0.353766234
3531.46296	0.353918007
3529.53425	0.354069466
3527.60555	0.35388601
3525.67684	0.354037267
3523.74813	0.354188211
3521.81942	0.354338843
3519.89072	0.354306343
3517.96201	0.353759011
3516.0333	0.354423868
3514.10459	0.354573484
3512.17589	0.354209446
3510.24718	0.354177345
3508.31847	0.354326677
3506.38977	0.354294479
3504.46106	0.354443309
3502.53235	0.354591837
3500.60364	0.354559348
3498.67494	0.354707379
3496.74623	0.354166667
3494.81752	0.354314721
3492.88882	0.354462475
3490.96011	0.354609929
3489.0314	0.354757085
3487.10269	0.355229914
3485.17399	0.355376073
3483.24528	0.355342742
3481.31657	0.355488419
3479.38786	0.355455003
3477.45916	0.355421687
3475.53045	0.3555667
3473.60174	0.355032549
3471.67304	0.355
3469.74433	0.355144855
3467.81562	0.355610973
3465.88691	0.355577689
3463.95821	0.355544505
3462.0295	0.35551142
3460.10079	0.355654762
3458.17208	0.355621595
3456.24338	0.355588526
3454.31467	0.355731225
3452.38596	0.355698076
3450.45726	0.355840315
3448.52855	0.355807087
3446.59984	0.356265356
3444.67113	0.3562316
3442.74243	0.356197942
3440.81372	0.356164384
3438.88501	0.356130923
3436.95631	0.356097561
3435.0276	0.356551388
3433.09889	0.35651751
3431.17018	0.35631068
3429.24148	0.356104651
3427.31277	0.356555394
3425.38406	0.35634959
3423.45535	0.356798457
3421.52665	0.356764564
3419.59794	0.356730769
3417.66923	0.356525912
3415.74053	0.356492573
3413.81182	0.356767097
3411.88311	0.356733524
3409.9544	0.356870229
3408.0257	0.356836589
3406.09699	0.356803045
3404.16828	0.357244656
3402.23957	0.357210626
3400.31087	0.357007576
3398.38216	0.357277883
3396.45345	0.35754717
3394.52475	0.357344633
3392.59604	0.357612782
3390.66733	0.357410882
3388.73862	0.357677903
3386.80992	0.357643759
3384.88121	0.357909473
3382.9525	0.357875116
3381.0238	0.357674419
3379.09509	0.35810497
3377.16638	0.357904497
3375.23767	0.35787037
3373.30897	0.358133087
3371.38026	0.358098754
3369.45155	0.358360203
3367.52284	0.358325667
3365.59414	0.358291226
3363.66543	0.358551123
3361.73672	0.358352403
3359.80802	0.358318099
3357.87931	0.358576642
3355.9506	0.358542141
3354.02189	0.358344702
3352.09319	0.358764759
3350.16448	0.358567543
3348.23577	0.358985967
3346.30706	0.358951175
3344.37836	0.359205776
3342.44965	0.359170798
3340.52094	0.358974359
3338.59224	0.359227661
3336.66353	0.359192825
3334.73482	0.359444942
3332.80611	0.359409924
3330.87741	0.359214636
3328.9487	0.359465479
3327.01999	0.359430605
3325.09129	0.359236234
3323.16258	0.359645233
3321.23387	0.359451085
3319.30516	0.359699514
3317.37646	0.360105914
3315.44775	0.360352423
3313.51904	0.360158311
3311.59033	0.359964881
3309.66163	0.35977213
3307.73292	0.360175055
3305.80421	0.359982525
3303.87551	0.360226777
3301.9468	0.360034828
3300.01809	0.360434783
3298.08938	0.360243056
3296.16068	0.360485269
3294.23197	0.360726644
3292.30326	0.360967185
3290.37455	0.360775862
3288.44585	0.361015491
3286.51714	0.360979802
3284.58843	0.360634648
3282.65973	0.360873288
3280.73102	0.360683761
3278.80231	0.360921502
3276.8736	0.361158433
3274.9449	0.361122926
3273.01619	0.361358811
3271.08748	0.361016949
3269.15878	0.361252115
3267.23007	0.361486486
3265.30136	0.361298482
3263.37265	0.361531987
3261.44395	0.361344538
3259.51524	0.361728913
3257.58653	0.36196062
3255.65782	0.361773317
3253.72912	0.362004175
3251.80041	0.361817424
3249.8717	0.362047441
3247.943	0.361861238
3246.01429	0.362090419
3244.08558	0.361904762
3242.15687	0.362133113
3240.22817	0.361947998
3238.29946	0.362175525
3236.37075	0.36255144
3234.44204	0.362366475
3232.51334	0.362443624
3230.58463	0.362259517
3228.65592	0.362484675
3226.72722	0.362709098
3224.79851	0.36293279
3222.8698	0.362749085
3220.94109	0.362971985
3219.01239	0.363194163
3217.08368	0.363010927
3215.15497	0.363232323
3213.22627	0.363453005
3211.29756	0.363270238
3209.36885	0.363344051
3207.44014	0.363563403
3205.51144	0.36338141
3203.58273	0.3636
3201.65402	0.36341853
3199.72531	0.363636364
3197.79661	0.363853503
3195.8679	0.363672496
3193.93919	0.363744546
3192.01049	0.363960396
3190.08178	0.364175563
3188.15307	0.364246251
3186.22436	0.364066194
3184.29566	0.364280094
3182.36695	0.36410055
3180.43824	0.364313725
3178.50953	0.364526233
3176.58083	0.364595545
3174.65212	0.364416699
3172.72341	0.364485981
3170.79471	0.364696734
3168.866	0.364906832
3166.93729	0.364728682
3165.00858	0.36493808
3163.07988	0.365005794
3161.15117	0.365214038
3159.22246	0.365036581
3157.29376	0.365244137
3155.36505	0.365451056
3153.43634	0.365517241
3151.50763	0.365340474
3149.57893	0.365546218
3147.65022	0.365751335
3145.72151	0.365816521
3143.7928	0.365640441
3141.8641	0.365705615
3139.93539	0.365770541
3138.00668	0.365595463
3136.07798	0.365798414
3134.14927	0.365862849
3132.22056	0.36606471
3130.29185	0.366265965
3128.36315	0.366466617
3126.43444	0.366292135
3124.50573	0.36635514
3122.57702	0.366554685
3120.64832	0.36661699
3118.71961	0.366815476
3116.7909	0.367013373
3114.8622	0.366703745
3112.93349	0.366901148
3111.00478	0.366962306
3109.07607	0.367158672
3107.14737	0.367219153
3105.21866	0.366911765
3103.28995	0.367107195
3101.36125	0.367302053
3099.43254	0.36749634
3097.50383	0.367555718
3095.57512	0.36761488
3093.64642	0.36780772
3091.71771	0.36786623
3089.789	0.3676951
3087.86029	0.367753623
3085.93159	0.367945007
3084.00288	0.368002889
3082.07417	0.367832672
3080.14547	0.36825054
3078.21676	0.368307582
3076.28805	0.368496591
3074.35934	0.368685059
3072.43064	0.368383405
3070.50193	0.368571429
3068.57322	0.368758916
3066.64451	0.368814525
3064.71581	0.369001066
3062.7871	0.368701207
3060.85839	0.368756642
3058.92969	0.368942342
3057.00098	0.368774285
3055.07227	0.368829337
3053.14356	0.369014085
3051.21486	0.369068541
3049.28615	0.369252369
3047.35744	0.369435682
3045.42874	0.369489153
3043.50003	0.369671558
3041.57132	0.369724451
3039.64261	0.369557645
3037.71391	0.36973913
3035.7852	0.369920111
3033.85649	0.37010059
3031.92778	0.369806094
3029.99908	0.369986169
3028.07037	0.370165746
3026.14166	0.370217166
3024.21296	0.370051635
3022.28425	0.37023032
3020.35554	0.370408514
3018.42683	0.370586219
3016.49813	0.370421089
3014.56942	0.370598291
3012.64071	0.370901639
3010.712	0.371077763
3008.7833	0.371253406
3006.85459	0.371214699
3004.92588	0.371389738
3002.99718	0.371224975
3001.06847	0.371186441
2999.13976	0.371486624
2997.21105	0.371447903
2995.28235	0.371534821
2993.35364	0.371621622
2991.42493	0.371708305
2989.49623	0.371794872
2987.56752	0.372006745
2985.63881	0.372218476
2983.7101	0.372218476
2981.7814	0.372006745
2979.85269	0.372132254
2977.92398	0.372045915
2975.99527	0.37254902
2974.06657	0.37250254
2972.13786	0.372582287
2970.20915	0.372915958
2968.28045	0.373124147
2966.35174	0.373078237
2964.42303	0.373333333
2962.49432	0.373419884
2960.56562	0.373551466
2958.63691	0.373768264
2956.7082	0.373730535
2954.77949	0.373693086
2952.85079	0.373655914
2950.92208	0.373744139
2948.99337	0.373747495
2947.06467	0.373791264
2945.13596	0.373959374
2943.20725	0.374043261
2941.27854	0.374043261
2939.34984	0.374167776
2937.42113	0.374292374
2935.49242	0.374292374
2933.56372	0.374625375
2931.63501	0.37437604
2929.7063	0.374335106
2927.77759	0.374501992
2925.84889	0.374544249
2923.92018	0.374669312
2921.99147	0.375
2920.06276	0.375082183
2918.13406	0.375163827
2916.20535	0.375122429
2914.27664	0.374877969
2912.34794	0.375081116
2910.41923	0.375080906
2908.49052	0.375080697
2906.56181	0.375523349
2904.63311	0.375321337
2902.7044	0.375440846
2900.77569	0.375879718
2898.84698	0.375678264
2896.91828	0.375796178
2894.98957	0.375913568
2893.06086	0.37571338
2891.13216	0.375949367
2889.20345	0.375987362
2887.27474	0.376025237
2885.34603	0.376181474
2883.41733	0.376337319
2881.48862	0.376415094
2879.55991	0.376492772
2877.63121	0.376570352
2875.7025	0.376843426
2873.77379	0.376684425
2871.84508	0.376838811
2869.91638	0.3771875
2867.98767	0.377223089
2866.05896	0.377258567
2864.13025	0.377411325
2862.20155	0.377252952
2860.27284	0.377405338
2858.34413	0.377674419
2856.41543	0.377399381
2854.48672	0.377434312
2852.55801	0.377544725
2850.6293	0.377538462
2848.7006	0.37791411
2846.77189	0.377981651
2844.84318	0.37804878
2842.91447	0.378230465
2840.98577	0.378222627
2839.05706	0.378214826
2837.12835	0.378019324
2835.19965	0.378239904
2833.27094	0.378459687
2831.34223	0.378678679
2829.41352	0.378710645
2827.48482	0.378629153
2825.55611	0.378661088
2823.6274	0.378991346
2821.6987	0.379022646
2819.76999	0.379053853
2817.84128	0.379197623
2815.91257	0.379115989
2813.98387	0.379443128
2812.05516	0.379585799
2810.12645	0.379615953
2808.19774	0.379758041
2806.26904	0.379899794
2804.34033	0.379635079
2802.41162	0.37995886
2800.48292	0.379988263
2798.55421	0.380128957
2796.6255	0.380269321
2794.69679	0.380298158
2792.76809	0.380326912
2790.83938	0.380355581
2788.91067	0.380494905
2786.98196	0.380523256
2785.05326	0.380551524
2783.12455	0.38057971
2781.19584	0.380718008
2779.26714	0.38074588
2777.33843	0.381062356
2775.40972	0.381199539
2773.48101	0.381336406
2771.55231	0.381363244
2769.6236	0.381499569
2767.69489	0.381526104
2765.76619	0.381661891
2763.83748	0.381688126
2761.90877	0.381823378
2759.98006	0.381958321
2758.05136	0.381984036
2756.12265	0.382118451
2754.19394	0.38225256
2752.26523	0.382277762
2750.33653	0.382411348
2748.40782	0.38254463
2746.47911	0.382569327
2744.55041	0.382593953
2742.6217	0.382726503
2740.69299	0.382858754
2738.76428	0.382990707
2736.83558	0.383014623
2734.90687	0.383426966
2732.97816	0.383277217
2731.04945	0.383300644
2729.12075	0.383151413
2727.19204	0.383174958
2725.26333	0.383198437
2723.33463	0.383607471
2721.40592	0.38363029
2719.47721	0.383759733
2717.5485	0.383888889
2715.6198	0.383911234
2713.69109	0.383933518
2711.76238	0.384061981
2709.83368	0.384084001
2707.90497	0.384211979
2705.97626	0.384339675
2704.04755	0.384191683
2702.11885	0.384488449
2700.19014	0.38450975
2698.26143	0.384636488
2696.33272	0.384657534
2694.40402	0.385057471
2692.47531	0.38518316
2690.5466	0.385308575
2688.6179	0.385328606
2686.68919	0.385453555
2684.76048	0.385578231
2682.83177	0.385326087
2680.90307	0.385450597
2678.97436	0.385470317
2677.04565	0.385594368
2675.11694	0.38571815
2673.18824	0.385737439
2671.25953	0.386130599
2669.33082	0.386253369
2667.40212	0.386271871
2665.47341	0.386394192
2663.5447	0.38641246
2661.61599	0.386534335
2659.68729	0.386820252
2657.75858	0.386941397
2655.82987	0.386691609
2653.90117	0.3868126
2651.97246	0.386830179
2650.04375	0.38684771
2648.11504	0.386968085
2646.18634	0.387088204
2644.25763	0.387473461
2642.32892	0.387490061
2640.40021	0.387873974
2638.47151	0.387625595
2636.5428	0.387744321
2634.61409	0.387760485
2632.68539	0.387878788
2630.75668	0.387996841
2628.82797	0.388012618
2626.89926	0.388130252
2624.97056	0.388145817
2623.04185	0.388263034
2621.11314	0.388380005
2619.18443	0.388496732
2617.25573	0.388511749
2615.32702	0.388526728
2613.39831	0.388802083
2611.46961	0.388917794
2609.5409	0.38893219
2607.61219	0.389047495
2605.68348	0.38906169
2603.75478	0.389176592
2601.82607	0.389291257
2599.89736	0.389405685
2597.96865	0.389419355
2596.03995	0.389533385
2594.11124	0.389904713
2592.18253	0.389917695
2590.25383	0.389930645
2588.32512	0.389943561
2586.39641	0.390056381
2584.4677	0.390069107
2582.539	0.390181539
2580.61029	0.390293742
2578.68158	0.390561224
2576.75288	0.390573248
2574.82417	0.390684653
2572.89546	0.390696492
2570.96675	0.390807517
2569.03805	0.390819173
2567.10934	0.39092982
2565.18063	0.391194332
2563.25192	0.391205459
2561.32322	0.391216557
2559.39451	0.391326273
2557.4658	0.391435768
2555.5371	0.391545043
2553.60839	0.391555667
2551.67968	0.391664574
2549.75097	0.391925777
2547.82227	0.392034068
2545.89356	0.392044033
2543.96485	0.392151962
2542.03614	0.392161757
2540.10744	0.392171528
2538.17873	0.392278954
2536.25002	0.392288557
2534.32132	0.392644135
2532.39261	0.392653264
2530.4639	0.39266237
2528.53519	0.392768697
2526.60649	0.392874814
2524.67778	0.393130714
2522.74907	0.393236238
2520.82037	0.393244576
2518.89166	0.393499138
2516.96295	0.393603936
2515.03424	0.393611794
2513.10554	0.393619632
2511.17683	0.393723952
2509.24812	0.394072986
2507.31941	0.394080235
2505.39071	0.394087466
2503.462	0.39409468
2501.53329	0.394197952
2499.60459	0.394205016
2497.67588	0.394212062
2495.74717	0.394557823
2493.81846	0.394660194
2491.88976	0.394666667
2489.96105	0.395010899
2488.03234	0.395016933
2486.10363	0.395022952
2484.17493	0.395124306
2482.24622	0.395130183
2480.31751	0.395136046
2478.38881	0.395477508
2476.4601	0.395482941
2474.53139	0.395583293
2472.60268	0.395588588
2470.67398	0.395833333
2468.74527	0.395933014
2466.81656	0.395937873
2464.88786	0.396181384
2462.95915	0.396280401
2461.03044	0.39628483
2459.10173	0.396289248
2457.17303	0.396293656
2455.24432	0.396535358
2453.31561	0.396633476
2451.3869	0.396731407
2449.4582	0.396735273
2447.52949	0.3968329
2445.60078	0.39707271
2443.67208	0.396982555
2441.74337	0.397079604
2439.81466	0.397318278
2437.88595	0.397414806
2435.95725	0.397652582
2434.02854	0.397655334
2432.09983	0.39775123
2430.17112	0.397753861
2428.24242	0.397990185
2426.31371	0.398225957
2424.385	0.398228025
2422.4563	0.398230088
2420.52759	0.398324802
2418.59888	0.398559145
2416.67017	0.398560817
2414.74147	0.398562486
2412.81276	0.39856415
2410.88405	0.398797132
2408.95535	0.398890686
2407.02664	0.398891967
2405.09793	0.398893244
2403.16922	0.399124827
2401.24052	0.399355878
2399.31181	0.399356618
2397.3831	0.399449036
2395.45439	0.399678973
2393.52569	0.39967934
2391.59698	0.399771167
2389.66827	0.4
2387.73957	0.399908697
2385.81086	0.400136799
2383.88215	0.400136643
2381.95344	0.400227531
2380.02474	0.400227273
2378.09603	0.400544959
2376.16732	0.40077115
2374.23861	0.400770276
2372.30991	0.401086464
2370.3812	0.400859145
2368.45249	0.400858175
2366.52379	0.401173285
2364.59508	0.401171963
2362.66637	0.401170644
2360.73766	0.401394198
2358.80896	0.401617251
2356.88025	0.401525348
2354.95154	0.401747703
2353.02284	0.401655851
2351.09413	0.401877515
2349.16542	0.401875419
2347.23671	0.401962971
2345.30801	0.402183601
2343.3793	0.402270703
2341.45059	0.402268179
2339.52188	0.402577205
2337.59318	0.402574345
2335.66447	0.402793172
2333.73576	0.40279008
2331.80706	0.403008184
2329.87835	0.402915838
2327.94964	0.403133274
2326.02093	0.403129821
2324.09223	0.403346543
2322.16352	0.403254178
2320.23481	0.403470239
2318.3061	0.403685827
2316.3774	0.403681788
2314.44869	0.403896673
2312.51998	0.403892412
2310.59128	0.404018345
2308.66257	0.404013962
2306.73386	0.404097646
2304.80515	0.404093185
2302.87645	0.40430622
2300.94774	0.404518792
2299.01903	0.404730903
2297.09033	0.404725775
2295.16162	0.404937202
2293.23291	0.405019472
2291.3042	0.405014048
2289.3755	0.405096092
2287.44679	0.405090595
2285.51808	0.405300582
2283.58937	0.405510116
2281.66067	0.405504193
2279.73196	0.405498282
2277.80325	0.405579399
2275.87455	0.405787781
2273.94584	0.405781585
2272.01713	0.405989305
2270.08842	0.406069673
2268.15972	0.406063194
2266.23101	0.406056729
2264.3023	0.406263315
2262.37359	0.406343125
2260.44489	0.406549011
2258.51618	0.406542056
2256.58747	0.406747295
2254.65877	0.406865861
2252.73006	0.407070279
2250.80135	0.407062804
2248.87264	0.40718057
2246.94394	0.407172996
2245.01523	0.40729035
2243.08652	0.407493159
2241.15782	0.407609838
2239.22911	0.407726223
2237.3004	0.407718121
2235.37169	0.407624633
2233.44299	0.407825905
2231.51428	0.407941484
2229.58557	0.408265498
2227.65686	0.408380238
2225.72816	0.408371512
2223.79945	0.408485857
2221.87074	0.408684812
2219.94204	0.408798506
2218.01333	0.408789386
2216.08462	0.408902692
2214.15591	0.408893485
2212.22721	0.409006404
2210.2985	0.409203467
2208.36979	0.409193981
2206.44108	0.409306156
2204.51238	0.409296586
2202.58367	0.409492501
2200.65496	0.409688013
2198.72626	0.409678081
2196.79755	0.409789064
2194.86884	0.409779051
2192.94013	0.409973431
2191.01143	0.410167415
2189.08272	0.410157047
2187.15401	0.410350448
2185.22531	0.410339915
2183.2966	0.410532737
2181.36789	0.410522039
2179.43918	0.410714286
2177.51048	0.410703426
2175.58177	0.410895099
2173.65306	0.411086385
2171.72435	0.411075182
2169.79565	0.411265899
2167.86694	0.411254538
2165.93823	0.411444691
2164.00953	0.411433172
2162.08082	0.411622763
2160.15211	0.411811973
2158.2234	0.41180012
2156.2947	0.411988773
2154.36599	0.412059295
2152.43728	0.412047228
2150.50857	0.412117576
2148.57987	0.412152708
2146.65116	0.412152708
2144.72245	0.412352588
2142.79375	0.41237525
2140.86504	0.412549801
2138.93633	0.412805727
2137.00762	0.412827641
2135.07892	0.413013291
2133.15021	0.413000396
2131.2215	0.41290578
2129.2928	0.413009095
2127.36409	0.412996247
2125.43538	0.413099231
2123.50667	0.413283406
2121.57797	0.413467218
2119.64926	0.413650669
2117.72055	0.413948919
2115.79184	0.413935231
2113.86314	0.414036463
2111.93443	0.414022718
2110.00572	0.414123631
2108.07702	0.414305257
2106.14831	0.414405622
2104.2196	0.414586583
2102.29089	0.414767193
2100.36219	0.414672115
2098.43348	0.414771623
2096.50477	0.414870899
2094.57606	0.415050427
2092.64736	0.415149167
2090.71865	0.415247678
2088.78994	0.415152687
2086.86124	0.415250965
2084.93253	0.415349017
2083.00382	0.415446841
2081.07511	0.41554444
2079.14641	0.415721699
2077.2177	0.415818775
2075.28899	0.415915628
2073.36029	0.416012258
2071.43158	0.416108667
2069.50287	0.416172816
2067.57416	0.416236867
2065.64546	0.416412214
2063.71675	0.416428435
2061.78804	0.416555661
2059.85933	0.416571646
2057.93063	0.416856492
2056.00192	0.416761471
2054.07321	0.417045455
2052.14451	0.417218543
2050.2158	0.417312417
2048.28709	0.417406079
2046.35838	0.417499529
2044.42968	0.417404408
2042.50097	0.417576214
2040.57226	0.417669173
2038.64355	0.417949681
2036.71485	0.418120428
2034.78614	0.418025108
2032.85743	0.418086501
2030.92873	0.418304323
2029.00002	0.418334892
2027.07131	0.41845694
2025.1426	0.418578623
2023.2139	0.418777943
2021.28519	0.418868627
2019.35648	0.419036996
2017.42778	0.419019316
2015.49907	0.419187233
2013.57036	0.419091752
2011.64165	0.419181633
2009.71295	0.419533851
2007.78424	0.41970061
2005.85553	0.419682422
2003.92682	0.419664269
2001.99812	0.419646148
2000.06941	0.419996317
1998.1407	0.419900681
1996.212	0.419882396
1994.28329	0.420047733
1992.35458	0.420289855
1990.42587	0.420271261
1988.49717	0.420435818
1986.56846	0.420523139
1984.63975	0.420504386
1982.71104	0.420485667
1980.78234	0.420649398
1978.85363	0.420707255
1976.92492	0.421052632
1974.99622	0.421215429
1973.06751	0.421272727
1971.1388	0.421329942
1969.21009	0.421492104
1967.28139	0.421549066
1965.35268	0.421710765
1963.42397	0.421662742
1961.49527	0.421835328
1959.56656	0.421931736
1957.63785	0.42204496
1955.70914	0.422117817
1953.78044	0.422210204
1951.85173	0.422294255
1949.92302	0.422530142
1947.99431	0.422613698
1946.06561	0.422697073
1944.1369	0.422856118
1942.20819	0.422835634
1940.27949	0.422842821
1938.35078	0.422849991
1936.42207	0.423008217
1934.49336	0.423166161
1932.56466	0.423145506
1930.63595	0.423303046
1928.70724	0.423460306
1926.77853	0.423692636
1924.84983	0.423849298
1922.92112	0.423903392
1920.99241	0.424134871
1919.06371	0.424188686
1917.135	0.424269265
1915.20629	0.42419954
1913.27758	0.424279908
1911.34888	0.424509977
1909.42017	0.424488356
1907.49146	0.424643046
1905.56276	0.424546575
1903.63405	0.424700915
1901.70534	0.424854983
1899.77663	0.425083436
1897.84793	0.425136037
1895.91922	0.425188563
1893.99051	0.425166491
1892.0618	0.425394046
1890.1331	0.425621281
1888.20439	0.425773737
1886.27568	0.425676856
1884.34698	0.42582897
1882.41827	0.425806452
1880.48956	0.425958188
1878.56085	0.425935596
1876.63215	0.425913043
1874.70344	0.426064292
1872.77473	0.426363321
1870.84602	0.426884335
1868.91732	0.427083333
1866.98861	0.427011096
1865.0599	0.426865155
1863.1312	0.426768113
1861.20249	0.426917761
1859.27378	0.42706715
1857.34507	0.427043808
1855.41637	0.427192831
1853.48766	0.427415189
1851.55895	0.427391604
1849.63025	0.427441541
1847.70154	0.427711879
1845.77283	0.428301238
1843.84412	0.428522337
1841.91542	0.428301887
1839.98671	0.428155506
1838.058	0.428229256
1836.12929	0.428205128
1834.20059	0.428351836
1832.27188	0.428620219
1830.34317	0.428986002
1828.41447	0.429034459
1826.48576	0.429107021
1824.55705	0.429009193
1822.62834	0.429008672
1820.69964	0.42891116
1818.77093	0.42912918
1816.84222	0.429177269
1814.91351	0.429298067
1812.98481	0.429491525
1811.0561	0.429612062
1809.12739	0.429829016
1807.19869	0.429876501
1805.26998	0.429996618
1803.34127	0.430165708
1801.41256	0.430334799
1799.48386	0.430527383
1797.55515	0.430574324
1795.62644	0.430743243
1793.69774	0.431130641
1791.76903	0.431299645
1789.84032	0.431031572
1787.91161	0.430909398
1785.98291	0.431078117
1784.0542	0.431246837
1782.12549	0.43134278
1780.19678	0.431438691
1778.26808	0.431630416
1776.33937	0.431871838
1774.41066	0.432236287
1772.48196	0.432528289
1770.55325	0.432551072
1768.62454	0.432523617
1766.69583	0.432254803
1764.76713	0.432204817
1762.83842	0.432518955
1760.90971	0.432664756
1758.981	0.432737694
1757.0523	0.432787991
1755.12359	0.432815665
1753.19488	0.433378424
1751.26618	0.433920705
1749.33747	0.434023066
1747.40876	0.433904633
1745.48005	0.433786078
1743.55135	0.433792283
1741.62264	0.434042553
1739.69393	0.434241908
1737.76523	0.434441603
1735.83652	0.434864265
1733.90781	0.435332308
1731.9791	0.434930923
1730.0504	0.434649421
1728.12169	0.434420659
1726.19298	0.434435963
1724.26427	0.434355413
1722.33557	0.434664861
1720.40686	0.435341909
1718.47815	0.435849695
1716.54945	0.435841082
1714.62074	0.435508346
1712.69203	0.435104237
1710.76332	0.435234899
1708.83462	0.435394671
1706.90591	0.435605426
1704.9772	0.435837377
1703.04849	0.43643359
1701.11979	0.437008533
1699.19108	0.437165775
1697.26237	0.436718359
1695.33367	0.436605657
1693.40496	0.436110189
1691.47625	0.435884692
1689.54754	0.435999338
1687.61884	0.43647507
1685.69013	0.437075112
1683.76142	0.437406732
1681.83272	0.43694141
1679.90401	0.436787308
1677.9753	0.436808194
1676.04659	0.437210839
1674.11789	0.437231582
1672.18918	0.43734522
1670.26047	0.437582563
1668.33176	0.437551559
1666.40306	0.437139562
1664.47435	0.43723229
1662.54564	0.437324988
1660.61694	0.437201646
1658.68823	0.437222314
1656.75952	0.437798649
1654.83081	0.438863186
1652.90211	0.43929871
1650.9734	0.438758666
1649.04469	0.438582028
1647.11598	0.438746908
1645.18728	0.43847801
1643.25857	0.438085841
1641.32986	0.437962202
1639.40116	0.438250288
1637.47245	0.438992261
1635.54374	0.43913688
1633.61503	0.438815789
1631.68633	0.438495648
1629.75762	0.438515843
1627.82891	0.438752053
1625.90021	0.438896189
1623.9715	0.439132578
1622.04279	0.43898834
1620.11408	0.439008373
1618.18538	0.439316801
1616.25667	0.43966508
1614.32796	0.439416298
1612.39925	0.43938401
1610.47055	0.43963964
1608.54184	0.43963964
1606.61313	0.439659407
1604.68443	0.439679162
1602.75572	0.439862543
1600.82701	0.439810272
1598.8983	0.43999346
1596.9696	0.440104592
1595.04089	0.440215616
1593.11218	0.440346009
1591.18347	0.44047619
1589.25477	0.440606159
1587.32606	0.440664171
1585.39735	0.440793754
1583.46865	0.440688983
1581.53994	0.440889899
1579.61123	0.441143043
1577.68252	0.441611174
1575.75382	0.441649083
1573.82511	0.44165316
1571.8964	0.441781377
1569.96769	0.441890579
1568.03899	0.44194696
1566.11028	0.441860465
1564.18157	0.44196933
1562.25287	0.442792502
1560.32416	0.44365285
1558.39545	0.444048583
1556.46674	0.443690418
1554.53804	0.443029815
1552.60933	0.44271001
1550.68062	0.442746864
1548.75192	0.442765273
1546.82321	0.443139778
1544.8945	0.443639291
1542.96579	0.444354839
1541.03709	0.444731322
1539.10838	0.444498147
1537.17967	0.443926735
1535.25096	0.443927483
1533.32226	0.443963444
1531.39355	0.443786035
1529.46484	0.443822023
1527.53614	0.44412424
1525.60743	0.444569048
1523.67872	0.445068164
1521.75001	0.445425361
1519.82131	0.44537141
1517.8926	0.445192308
1515.96389	0.444835869
1514.03518	0.44485353
1512.10648	0.444924752
1510.17777	0.445352564
1508.24906	0.445852719
1506.32036	0.445887446
1504.39165	0.445297505
1502.46294	0.444834744
1500.53423	0.445065474
1498.60553	0.445492327
1496.67682	0.445492327
1494.74811	0.445367412
1492.81941	0.445367412
1490.8907	0.445723421
1488.96199	0.445865984
1487.03328	0.44574077
1485.10458	0.445544554
1483.17587	0.445402299
1481.24716	0.445544554
1479.31845	0.44574077
1477.38975	0.44606274
1475.46104	0.446600385
1473.53233	0.44683585
1471.60363	0.446801671
1469.67492	0.446391255
1467.74621	0.446356764
1465.8175	0.446698873
1463.8888	0.446842784
1461.96009	0.446825653
1460.03138	0.44738541
1458.10267	0.44809185
1456.17397	0.448019402
1454.24526	0.447402388
1452.31655	0.447075882
1450.38785	0.44709293
1448.45914	0.447342995
1446.53043	0.447215964
1444.60172	0.447106109
1442.67302	0.447211956
1440.74431	0.447444552
1438.8156	0.448020599
1436.8869	0.448381382
1434.95819	0.448253662
1433.02948	0.447893213
1431.10077	0.447981991
1429.17207	0.448054037
1427.24336	0.44821486
1425.31465	0.448270314
1423.38594	0.448381382
1421.45724	0.448943378
1419.52853	0.449345613
1417.59982	0.449329239
1415.67112	0.448949919
1413.74241	0.448860882
1411.8137	0.448900388
1409.88499	0.448939958
1407.95629	0.449141561
1406.02758	0.449254215
1404.09887	0.449383517
1402.17016	0.449512987
1400.24146	0.449805068
1398.31275	0.450024378
1396.38404	0.450024378
1394.45534	0.450219263
1392.52663	0.450032446
1390.59792	0.45013783
1388.66921	0.450283861
1386.74051	0.450429985
1384.8118	0.450210834
1382.88309	0.450316097
1380.95439	0.450421257
1379.02568	0.450672283
1377.09697	0.450834278
1375.16826	0.450980392
1373.23956	0.451231367
1371.31085	0.451247166
1369.38214	0.451101036
1367.45343	0.451189898
1365.52473	0.451351789
1363.59602	0.451748705
1361.66731	0.451853051
1359.73861	0.451738076
1357.8099	0.451696284
1355.88119	0.45180042
1353.95248	0.45174306
1352.02378	0.451847072
1350.09507	0.451878123
1348.16636	0.452070243
1346.23765	0.452101111
1344.30895	0.452043772
1342.38024	0.452131939
1340.45153	0.452453741
1338.52283	0.452557092
1336.59412	0.452514864
1334.66541	0.452560604
1332.7367	0.452518447
1330.808	0.452709202
1328.87929	0.452812049
1326.95058	0.452827166
1325.02188	0.452754644
1323.09317	0.452914798
1321.16446	0.452987346
1319.23575	0.453220122
1317.30705	0.453132511
1315.37834	0.453277769
1313.44963	0.453350433
1311.52092	0.45342312
1309.59222	0.453495831
1307.66351	0.453641322
1305.7348	0.453626444
1303.8061	0.453611557
1301.87739	0.453902987
1299.94868	0.453961112
1298.01997	0.454165326
1296.09127	0.454135822
1294.16256	0.454340474
1292.23385	0.454545455
1290.30514	0.45458945
1288.37644	0.454794963
1286.44773	0.454751131
1284.51902	0.454868974
1282.59032	0.454972465
1280.66161	0.455002432
1278.7329	0.455180253
1276.80419	0.45534407
1274.87549	0.455419723
1272.94678	0.455555556
1271.01807	0.455752212
1269.08937	0.455906548
1267.16066	0.456018519
1265.23195	0.456131605
1263.30324	0.456380317
1261.37454	0.45647452
1259.44583	0.456351193
1257.51712	0.456452956
1255.58841	0.456568676
1253.65971	0.456820819
1251.731	0.456939384
1249.80229	0.456939384
1247.87359	0.456910839
1245.94488	0.456958036
1244.01617	0.457157091
1242.08746	0.457356608
1240.15876	0.457466289
1238.23005	0.457819273
1236.30134	0.457839372
1234.37263	0.45793611
1232.44393	0.458123953
1230.51522	0.458144607
1228.58651	0.458165323
1226.65781	0.458186101
1224.7291	0.458284173
1222.80039	0.45855141
1220.87168	0.458897158
1218.94298	0.45899695
1217.01427	0.459005262
1215.08556	0.459013605
1213.15686	0.45927062
1211.22815	0.459357923
1209.29944	0.459695362
1207.37073	0.459862779
1205.44203	0.460030944
1203.51332	0.460027567
1201.58461	0.460117403
1199.6559	0.460287247
1197.7272	0.460284426
1195.79849	0.460455415
1193.86978	0.460801394
1191.94108	0.461068436
1190.01237	0.461161652
1188.08366	0.461160793
1186.15495	0.461416769
1184.22625	0.46174189
1182.29754	0.461878649
1180.36883	0.461770445
1178.44012	0.461962318
1176.51142	0.462168417
1174.58271	0.462361755
1172.654	0.462459778
1170.7253	0.462641104
1168.79659	0.462906413
1166.86788	0.462909615
1164.93917	0.463176895
1163.01047	0.463264567
1161.08176	0.463450027
1159.15305	0.463538825
1157.22435	0.463712619
1155.29564	0.464070214
1153.36693	0.464148175
1151.43822	0.464226596
1149.50952	0.464391144
1147.58081	0.464556728
1145.6521	0.464895988
1143.72339	0.465051258
1141.79469	0.46549467
1139.86598	0.46567892
1137.93727	0.465864209
1136.00857	0.466050547
1134.07986	0.466225166
1132.15115	0.466489463
1130.22244	0.466742901
1128.29374	0.466896288
1126.36503	0.467140661
1124.43632	0.467387109
1122.50761	0.467532468
1120.57891	0.467770204
1118.6502	0.468101761
1116.72149	0.468528718
1114.79279	0.468657307
1112.86408	0.468880493
1110.93537	0.4694
1109.00666	0.469617706
1107.07796	0.469838057
1105.14925	0.4700611
1103.22054	0.470395411
1101.29184	0.470745777
1099.36313	0.471123991
1097.43442	0.471419663
1095.50571	0.471741397
1093.57701	0.471978252
1091.6483	0.472216398
1089.71959	0.472245585
1087.79088	0.47257384
1085.86218	0.473004446
1083.93347	0.473326249
1082.00476	0.473751601
1080.07606	0.474078835
1078.14735	0.474510647
1076.21864	0.474854306
1074.28993	0.474994588
1072.36123	0.475363577
1070.43252	0.475848564
1068.50381	0.476335878
1066.5751	0.476606909
1064.6464	0.476879246
1062.71769	0.477257746
1060.78898	0.477753304
1058.86028	0.478040168
1056.93157	0.478453039
1055.00286	0.478770456
1053.07415	0.47920354
1051.14545	0.479637008
1049.21674	0.480177187
1047.28803	0.480389984
1045.35933	0.480487805
1043.43062	0.480807633
1041.50191	0.481234732
1039.5732	0.481884863
1037.6445	0.482421006
1035.71579	0.482743264
1033.78708	0.483173613
1031.85837	0.483719893
1029.92967	0.484158858
1028.00096	0.484713234
1026.07225	0.485166183
1024.14355	0.485625139
1022.21484	0.486197685
1020.28613	0.486768957
1018.35742	0.487452809
1016.42872	0.487583149
1014.50001	0.488047809
1012.5713	0.488402916
1010.64259	0.489197531
1008.71389	0.489881214
1006.78518	0.490557751
1004.85647	0.491012714
1002.92777	0.491458607
1000.99906	0.492011381
999.07035	0.492560175
997.14164	0.493108729
995.21294	0.493762311
993.28423	0.494197504
991.35552	0.494630725
989.42682	0.495390694
987.49811	0.496042216
985.5694	0.496585151
983.64069	0.497238789
981.71199	0.497673388
979.78328	0.49844306
977.85457	0.499218226
975.92586	0.499775684
973.99716	0.500225225
972.06845	0.500678119
970.13974	0.501474257
968.21104	0.502161547
966.28233	0.502738476
964.35362	0.503432494
962.42491	0.504130335
960.49621	0.504832029
958.5675	0.505423494
956.63879	0.506021306
954.71008	0.506741051
952.78138	0.507117853
950.85267	0.508089097
948.92396	0.50871819
946.99526	0.509478673
945.06655	0.510252742
943.13784	0.510801728
941.20913	0.511245466
939.28043	0.512070227
937.35172	0.512915129
935.42301	0.513781972
933.49431	0.51441464
931.5656	0.515312579
929.63689	0.515832482
927.70818	0.516486347
925.77948	0.516883117
923.85077	0.517412935
921.92206	0.518088196
919.99335	0.519041278
918.06465	0.519613111
916.13594	0.520336226
914.20723	0.521084337
912.27853	0.521582734
910.34982	0.522104085
908.42111	0.522502123
906.4924	0.523059295
904.5637	0.523919977
902.63499	0.524801878
900.70628	0.525081627
898.77757	0.525652565
896.84887	0.526220067
894.92016	0.527105666
892.99145	0.52755418
891.06275	0.52801252
889.13404	0.528648306
887.20533	0.528978546
885.27662	0.529640428
883.34792	0.529816514
881.41921	0.530328141
879.4905	0.530495979
877.5618	0.530985439
875.63309	0.531805746
873.70438	0.532091097
871.77567	0.532521739
869.84697	0.53277252
867.91826	0.533380431
865.98955	0.533641865
864.06084	0.533524561
862.13214	0.533766703
860.20343	0.534376137
858.27472	0.534798535
856.34602	0.534660767
854.41731	0.534892353
852.4886	0.535500747
850.55989	0.535741159
848.63119	0.535781901
846.70248	0.536
844.77377	0.535810034
842.84506	0.53600308
840.91636	0.535990712
838.98765	0.536367172
837.05894	0.536175205
835.13024	0.536163522
833.20153	0.535756618
831.27282	0.53531746
829.34411	0.535273017
827.41541	0.53504205
825.4867	0.535024155
823.55799	0.53500607
821.62929	0.534770232
819.70058	0.534940744
817.77187	0.534263439
815.84316	0.533800495
813.91446	0.532919255
811.98575	0.532667499
810.05704	0.532217573
808.12833	0.531539108
806.19963	0.530629489
804.27092	0.530110263
802.34221	0.529136538
800.41351	0.52855925
798.4848	0.527730375
796.55609	0.526675203
794.62738	0.52559727
792.69868	0.524946695
790.76997	0.523647209
788.84126	0.52212766
786.91255	0.520833333
784.98385	0.519762006
783.05514	0.51826678
781.12643	0.516772824
779.19773	0.515485787
777.26902	0.514843087
775.34031	0.513559322
773.4116	0.512277731
771.4829	0.510566357
769.55419	0.508438819
767.62548	0.506953224
765.69678	0.505050505
763.76807	0.503364172
761.83936	0.502311896
759.91065	0.501050862
757.98195	0.499789828
756.05324	0.498527556
754.12453	0.49747262
752.19582	0.496415015
750.26712	0.495141529
748.33841	0.493863733
746.4097	0.492575308
744.481	0.491705657
742.55229	0.490614334
740.62358	0.49015411
738.69487	0.488841202
736.76617	0.487731382
734.83746	0.486825054
732.90875	0.486123157
730.98004	0.48541576
729.05134	0.484265734
727.12263	0.483757682
725.19392	0.483017203
723.26522	0.482926829
721.33651	0.482835488
719.4078	0.482511211
717.47909	0.482416592
715.55039	0.481867634
713.62168	0.481532148
711.69297	0.481872419
709.76427	0.481071099
707.83556	0.480483271
705.90685	0.480355472
703.97814	0.480696798
702.04944	0.480322428
700.12073	0.479942693
698.19202	0.48003848
696.26331	0.480135659
694.33461	0.479980469
692.4059	0.479822835
690.47719	0.479662698
688.54849	0.479
686.61978	0.479072113
684.69107	0.479124236
682.76236	0.479691517
680.83366	0.479771784
678.90495	0.479330194
676.97624	0.479408659
675.04753	0.479211087
673.11883	0.479806139
671.19012	0.479869423
669.26141	0.480483782
667.33271	0.480288728
665.404	0.480089736
663.47529	0.479886686
661.54658	0.48025186
659.61788	0.48004627
657.68917	0.479836353
655.76046	0.479905437
653.83176	0.480263158
651.90305	0.480652963
649.97434	0.481051345
648.04563	0.481161211
646.11693	0.480973175
644.18822	0.480805538
642.25951	0.48094028
640.3308	0.481719051
638.4021	0.481553398
636.47339	0.481045752
634.54468	0.480845443
632.61598	0.481283422
630.68727	0.48240866
628.75856	0.482522276
626.82985	0.481944444
624.90115	0.481351161
622.97244	0.481455064
621.04373	0.481213873
619.11502	0.480614484
617.18632	0.480769231
615.25761	0.48206278
613.3289	0.481900452
611.4002	0.481762918
609.47149	0.482388974
607.54278	0.482253086
605.61407	0.481712062
603.68537	0.481946625
601.75666	0.48177496
