4999.20917	0.327058824
4997.28046	0.325526932
4995.35176	0.324766355
4993.42305	0.324009324
4991.49434	0.323255814
4989.56564	0.324825986
4987.63693	0.324074074
4985.70822	0.326388889
4983.77951	0.325635104
4981.85081	0.324884793
4979.9221	0.324137931
4977.99339	0.323394495
4976.06468	0.324942792
4974.13598	0.324200913
4972.20727	0.323462415
4970.27856	0.325740319
4968.34986	0.325
4966.42115	0.326530612
4964.49244	0.325791855
4962.56373	0.325056433
4960.63503	0.324324324
4958.70632	0.323595506
4956.77761	0.325112108
4954.8489	0.324384787
4952.9202	0.323660714
4950.99149	0.322939866
4949.06278	0.322222222
4947.13408	0.323725055
4945.20537	0.32300885
4943.27666	0.322295806
4941.34795	0.323788546
4939.41925	0.323076923
4937.49054	0.322368421
4935.56183	0.323851204
4933.63313	0.323144105
4931.70442	0.322440087
4929.77571	0.323913043
4927.847	0.323210412
4925.9183	0.324675325
4923.98959	0.323974082
4922.06088	0.323275862
4920.13217	0.322580645
4918.20347	0.324034335
4916.27476	0.323340471
4914.34605	0.322649573
4912.41735	0.32196162
4910.48864	0.321276596
4908.55993	0.322717622
4906.63122	0.322033898
4904.70252	0.321353066
4902.77381	0.32278481
4900.8451	0.322105263
4898.91639	0.321428571
4896.98769	0.322851153
4895.05898	0.322175732
4893.13027	0.321503132
4891.20157	0.322916667
4889.27286	0.322245322
4887.34415	0.321576763
4885.41544	0.322981366
4883.48674	0.321649485
4881.55803	0.320987654
4879.62932	0.320987654
4877.70062	0.321721311
4875.77191	0.321063395
4873.8432	0.320408163
4871.91449	0.321792261
4869.98579	0.321138211
4868.05708	0.320486815
4866.12837	0.321212121
4864.19966	0.321212121
4862.27096	0.320564516
4860.34225	0.32193159
4858.41354	0.321285141
4856.48484	0.322645291
4854.55613	0.322
4852.62742	0.321357285
4850.69871	0.320079523
4848.77001	0.321428571
4846.8413	0.320792079
4844.91259	0.320158103
4842.98388	0.320158103
4841.05518	0.321499014
4839.12647	0.320235756
4837.19776	0.321568627
4835.26906	0.320939335
4833.34035	0.3203125
4831.41164	0.319688109
4829.48293	0.319066148
4827.55423	0.32038835
4825.62552	0.319148936
4823.69681	0.32046332
4821.76811	0.319845857
4819.8394	0.319230769
4817.91069	0.318618042
4815.98198	0.319923372
4814.05328	0.31870229
4812.12457	0.32
4810.19586	0.319391635
4808.26715	0.318785579
4806.33845	0.320075758
4804.40974	0.319470699
4802.48103	0.318867925
4800.55233	0.320150659
4798.62362	0.318949343
4796.69491	0.320224719
4794.7662	0.319626168
4792.8375	0.320895522
4790.90879	0.320297952
4788.98008	0.319109462
4787.05137	0.318518519
4785.12267	0.31792976
4783.19396	0.317343173
4781.26525	0.318600368
4779.33655	0.317431193
4777.40784	0.316849817
4775.47913	0.31809872
4773.55042	0.319343066
4771.62172	0.318761384
4769.69301	0.32
4767.7643	0.319419238
4765.8356	0.31884058
4763.90689	0.317689531
4761.97818	0.318918919
4760.04947	0.318345324
4758.12077	0.31956912
4756.19206	0.318996416
4754.26335	0.320214669
4752.33464	0.319073084
4750.40594	0.318505338
4748.47723	0.317375887
4746.54852	0.318584071
4744.61982	0.318021201
4742.69111	0.317460317
4740.7624	0.316901408
4738.83369	0.316344464
4736.90499	0.31754386
4734.97628	0.316433566
4733.04757	0.315881326
4731.11886	0.316521739
4729.19016	0.315972222
4727.26145	0.31542461
4725.33274	0.316608997
4723.40404	0.317789292
4721.47533	0.317241379
4719.54662	0.316151203
4717.61791	0.317324185
4715.68921	0.316780822
4713.7605	0.315699659
4711.83179	0.31516184
4709.90308	0.316326531
4707.97438	0.315789474
4706.04567	0.315254237
4704.11696	0.31641286
4702.18826	0.31703204
4700.25955	0.316498316
4698.33084	0.315436242
4696.40213	0.316582915
4694.47343	0.316053512
4692.54472	0.315
4690.61601	0.316139767
4688.68731	0.315614618
4686.7586	0.315091211
4684.82989	0.315702479
4682.90118	0.315181518
4680.97248	0.314662273
4679.04377	0.315270936
4677.11506	0.314754098
4675.18635	0.314238953
4673.25765	0.315359477
4671.32894	0.314845024
4669.40023	0.315447154
4667.47153	0.314935065
4665.54282	0.313915858
4663.61411	0.313408724
4661.6854	0.314516129
4659.7567	0.314009662
4657.82799	0.31511254
4655.89928	0.314102564
4653.97057	0.3152
4652.04187	0.314194577
4650.11316	0.315286624
4648.18445	0.314785374
4646.25575	0.313787639
4644.32704	0.312796209
4642.39833	0.313880126
4640.46962	0.313385827
4638.54092	0.314465409
4636.61221	0.313479624
4634.6835	0.312989045
4632.7548	0.3125
4630.82609	0.313084112
4628.89738	0.312597201
4626.96867	0.313178295
4625.03997	0.312693498
4623.11126	0.313271605
4621.18255	0.312788906
4619.25384	0.313846154
4617.32514	0.313364055
4615.39643	0.312404288
4613.46772	0.311450382
4611.53902	0.3125
4609.61031	0.312024353
4607.6816	0.311550152
4605.75289	0.312121212
4603.82419	0.311649017
4601.89548	0.312217195
4599.96677	0.311746988
4598.03806	0.311278195
4596.10936	0.311844078
4594.18065	0.311377246
4592.25194	0.310447761
4590.32324	0.31147541
4588.39453	0.311011905
4586.46582	0.3115727
4584.53711	0.311111111
4582.60841	0.310192024
4580.6797	0.31120944
4578.75099	0.312223859
4576.82229	0.311306902
4574.89358	0.31085044
4572.96487	0.311403509
4571.03616	0.310948905
4569.10746	0.311499272
4567.17875	0.311046512
4565.25004	0.310144928
4563.32133	0.309696093
4561.39263	0.310693642
4559.46392	0.309798271
4557.53521	0.310791367
4555.60651	0.31133429
4553.6778	0.310888252
4551.74909	0.31
4549.82038	0.310984308
4547.89168	0.310541311
4545.96297	0.309659091
4544.03426	0.309219858
4542.10555	0.309759547
4540.17685	0.309322034
4538.24814	0.309859155
4536.31943	0.309423347
4534.39073	0.3085554
4532.46202	0.30952381
4530.53331	0.31048951
4528.6046	0.309623431
4526.6759	0.309192201
4524.74719	0.308333333
4522.81848	0.307905687
4520.88978	0.308437068
4518.96107	0.308965517
4517.03236	0.308539945
4515.10365	0.307692308
4513.17495	0.308641975
4511.24624	0.307797538
4509.31753	0.308743169
4507.38882	0.307901907
4505.46012	0.307482993
4503.53141	0.308005427
4501.6027	0.308943089
4499.674	0.308108108
4497.74529	0.307692308
4495.81658	0.30820996
4493.88787	0.307795699
4491.95917	0.306970509
4490.03046	0.306559572
4488.10175	0.307076101
4486.17304	0.306666667
4484.24434	0.307180851
4482.31563	0.30810093
4480.38692	0.307284768
4478.45822	0.307793923
4476.52951	0.307387863
4474.6008	0.306578947
4472.67209	0.306176084
4470.74339	0.306684142
4468.81468	0.307189542
4466.88597	0.306788512
4464.95727	0.305989583
4463.02856	0.305591678
4461.09985	0.306095979
4459.17114	0.305699482
4457.24244	0.30620155
4455.31373	0.305806452
4453.38502	0.306306306
4451.45631	0.305912596
4449.52761	0.305128205
4447.5989	0.305626598
4445.67019	0.305236271
4443.74149	0.305732484
4441.81278	0.305343511
4439.88407	0.305837563
4437.95536	0.305449937
4436.02666	0.304677623
4434.09795	0.30517024
4432.16924	0.304785894
4430.24053	0.305276382
4428.31183	0.304511278
4426.38312	0.304130163
4424.45441	0.303370787
4422.52571	0.304239401
4420.597	0.304726368
4418.66829	0.304347826
4416.73958	0.303593556
4414.81088	0.30407911
4412.88217	0.303329223
4410.95346	0.303813038
4409.02476	0.303439803
4407.09605	0.303921569
4405.16734	0.303549572
4403.23863	0.304029304
4401.30993	0.303658537
4399.38122	0.304136253
4397.45251	0.303398058
4395.5238	0.303030303
4393.5951	0.302297461
4391.66639	0.303140097
4389.73768	0.302409639
4387.80898	0.302884615
4385.88027	0.302521008
4383.95156	0.302994012
4382.02285	0.302270012
4380.09415	0.301909308
4378.16544	0.302380952
4376.23673	0.302021403
4374.30802	0.302491103
4372.37932	0.301775148
4370.45061	0.302243211
4368.5219	0.301531213
4366.5932	0.302352941
4364.66449	0.301643192
4362.73578	0.302107728
4360.80707	0.301401869
4358.87837	0.300699301
4356.94966	0.301162791
4355.02095	0.300813008
4353.09225	0.300115875
4351.16354	0.299421965
4349.23483	0.300230947
4347.30612	0.300691244
4345.37742	0.300345224
4343.44871	0.300803674
4341.52	0.300114548
4339.59129	0.300571429
4337.66259	0.299885975
4335.73388	0.299544419
4333.80517	0.298863636
4331.87647	0.299319728
4329.94776	0.299773756
4328.01905	0.299435028
4326.09034	0.29988726
4324.16164	0.299212598
4322.23293	0.2996633
4320.30422	0.299327354
4318.37551	0.299776286
4316.44681	0.299107143
4314.5181	0.29844098
4312.58939	0.298888889
4310.66069	0.299334812
4308.73198	0.299003322
4306.80327	0.299447514
4304.87456	0.298787211
4302.94586	0.298129813
4301.01715	0.297802198
4299.08844	0.298245614
4297.15974	0.29868709
4295.23103	0.298034934
4293.30232	0.298474946
4291.37361	0.297826087
4289.44491	0.297502714
4287.5162	0.297941495
4285.58749	0.297297297
4283.65878	0.297734628
4281.73008	0.297413793
4279.80137	0.296774194
4277.87266	0.2972103
4275.94396	0.296573876
4274.01525	0.297008547
4272.08654	0.297441365
4270.15783	0.296808511
4268.22913	0.296493092
4266.30042	0.295864263
4264.37171	0.296296296
4262.443	0.295670539
4260.5143	0.296101159
4258.58559	0.296529968
4256.65688	0.29590766
4254.72818	0.296335079
4252.79947	0.295715778
4250.87076	0.296450939
4248.94205	0.295833333
4247.01335	0.295525494
4245.08464	0.295950156
4243.15593	0.296373057
4241.22723	0.295760083
4239.29852	0.294845361
4237.36981	0.29526749
4235.4411	0.294964029
4233.5124	0.295384615
4231.58369	0.294779939
4229.65498	0.295199183
4227.72627	0.29459735
4225.79757	0.295015259
4223.86886	0.294416244
4221.94015	0.294832827
4220.01145	0.294534413
4218.08274	0.293939394
4216.15403	0.293346774
4214.22532	0.293762575
4212.29662	0.293172691
4210.36791	0.293587174
4208.4392	0.293293293
4206.51049	0.293413174
4204.58179	0.292828685
4202.65308	0.293240557
4200.72437	0.29265873
4198.79567	0.293069307
4196.86696	0.292490119
4194.93825	0.292899408
4193.00954	0.292322835
4191.08084	0.293018682
4189.15213	0.292443572
4187.22342	0.292850147
4185.29472	0.292277615
4183.36601	0.292682927
4181.4373	0.292397661
4179.50859	0.292517007
4177.57989	0.291949564
4175.65118	0.292352372
4173.72247	0.29178744
4171.79376	0.292189007
4169.86506	0.291626564
4167.93635	0.292026897
4166.00764	0.291187739
4164.07894	0.290630975
4162.15023	0.2913085
4160.22152	0.290753098
4158.29281	0.291151284
4156.36411	0.291547958
4154.4354	0.290995261
4152.50669	0.291390728
4150.57798	0.290840415
4148.64928	0.290292177
4146.72057	0.289746002
4144.79186	0.289868668
4142.86316	0.289325843
4140.93445	0.289719626
4139.00574	0.289179104
4137.07703	0.289571695
4135.14833	0.289962825
4133.21962	0.289424861
4131.29091	0.289814815
4129.36221	0.289546716
4127.4335	0.289012004
4125.50479	0.289400922
4123.57608	0.288602941
4121.64738	0.288990826
4119.71867	0.289377289
4117.78996	0.288848263
4115.86125	0.288321168
4113.93255	0.28870674
4112.00384	0.288181818
4110.07513	0.287658802
4108.14643	0.287782805
4106.21772	0.287262873
4104.28901	0.287646528
4102.3603	0.287128713
4100.4316	0.287511231
4098.50289	0.286995516
4096.57418	0.287376902
4094.64547	0.286863271
4092.71677	0.287243533
4090.78806	0.286731968
4088.85935	0.286222222
4086.93065	0.286347518
4085.00194	0.286725664
4083.07323	0.286219081
4081.14452	0.28659612
4079.21582	0.286091549
4077.28711	0.286467487
4075.3584	0.285964912
4073.4297	0.285464098
4071.50099	0.285839161
4069.57228	0.286212914
4067.64357	0.285465622
4065.71487	0.285838401
4063.78616	0.285342585
4061.85745	0.284848485
4059.92874	0.284974093
4058.00004	0.284482759
4056.07133	0.284853701
4054.14262	0.284120172
4052.21392	0.284734134
4050.28521	0.284246575
4048.3565	0.284615385
4046.42779	0.284129693
4044.49909	0.284255319
4042.57038	0.283772302
4040.64167	0.284139101
4038.71296	0.284504657
4036.78426	0.283783784
4034.85555	0.283305228
4032.92684	0.283670034
4030.99814	0.284033613
4029.06943	0.283319363
4027.14072	0.283682008
4025.21201	0.28320802
4023.28331	0.282735613
4021.3546	0.282861897
4019.42589	0.282392027
4017.49719	0.282752902
4015.56848	0.282284768
4013.63977	0.282644628
4011.71106	0.281945589
4009.78236	0.282304527
4007.85365	0.282662284
4005.92494	0.281967213
4003.99623	0.282324059
4002.06753	0.282679739
4000.13882	0.28198859
3998.21011	0.281529699
3996.28141	0.281884647
3994.3527	0.281427413
3992.42399	0.281781377
3990.49528	0.281325788
3988.56658	0.281678773
3986.63787	0.28099839
3984.70916	0.280546624
3982.78045	0.279871692
3980.85175	0.280224179
3978.92304	0.28057554
3976.99433	0.280127694
3975.06563	0.280478088
3973.13692	0.279809221
3971.20821	0.28015873
3969.2795	0.27949327
3967.3508	0.279841897
3965.42209	0.279400158
3963.49338	0.279747833
3961.56468	0.27908805
3959.63597	0.279434851
3957.70726	0.278996865
3955.77855	0.279124316
3953.84985	0.279469165
3951.92114	0.279033515
3949.99243	0.279377432
3948.06372	0.278943279
3946.13502	0.278294574
3944.20631	0.278637771
3942.2776	0.277992278
3940.3489	0.278120185
3938.42019	0.277478862
3936.49148	0.277820414
3934.56277	0.278374233
3932.63407	0.277947933
3930.70536	0.278074866
3928.77665	0.277650648
3926.84794	0.277777778
3924.91924	0.277355623
3922.99053	0.27693475
3921.06182	0.277272727
3919.13312	0.276853253
3917.20441	0.277190332
3915.2757	0.276355422
3913.34699	0.276276276
3911.41829	0.275655431
3909.48958	0.275991025
3907.56087	0.276738968
3905.63217	0.276946108
3903.70346	0.277486911
3901.77475	0.277072442
3899.84604	0.276991809
3897.91734	0.275964392
3895.98863	0.275887574
3894.05992	0.275480059
3892.13121	0.275811209
3890.20251	0.275405007
3888.2738	0.275735294
3886.34509	0.275532697
3884.41639	0.275659824
3882.48768	0.275054865
3880.55897	0.275182482
3878.63026	0.274381368
3876.70156	0.274509804
3874.77285	0.274310595
3872.84414	0.274310595
3870.91543	0.274836838
3868.98673	0.274240232
3867.05802	0.274170274
3865.12931	0.273578114
3863.20061	0.273706897
3861.2719	0.273638968
3859.34319	0.27305218
3857.41448	0.273962804
3855.48578	0.274748924
3853.55707	0.274551971
3851.62836	0.273699216
3849.69966	0.27285613
3847.77095	0.27259887
3845.84224	0.272406493
3843.91353	0.272214386
3841.98483	0.272727273
3840.05612	0.272535211
3838.12741	0.272855134
3836.1987	0.272089762
3834.27	0.272027972
3832.34129	0.271458479
3830.41258	0.271398747
3828.48388	0.271527778
3826.55517	0.270963271
3824.62646	0.271656272
3822.69775	0.271656272
3820.76905	0.271972318
3818.84034	0.271911663
3816.91163	0.271349862
3814.98292	0.270418668
3813.05422	0.270177839
3811.12551	0.269624573
3809.1968	0.270307167
3807.2681	0.26993865
3805.33939	0.270251872
3803.41068	0.270068027
3801.48197	0.270380435
3799.55327	0.270325203
3797.62456	0.269594595
3795.69585	0.269541779
3793.76715	0.268817204
3791.83844	0.268766756
3789.90973	0.268227425
3787.98102	0.268537074
3786.05232	0.268178786
3784.12361	0.267643142
3782.1949	0.267952128
3780.26619	0.268438538
3778.33749	0.267726972
3776.40878	0.267680106
3774.48007	0.267150396
3772.55137	0.267633487
3770.62266	0.267457181
3768.69395	0.267587114
3766.76524	0.267060367
3764.83654	0.26719057
3762.90783	0.266666667
3760.97912	0.266971279
3759.05041	0.266623207
3757.12171	0.266753416
3755.193	0.266579974
3753.26429	0.267578125
3751.33559	0.267578125
3749.40688	0.267706303
3747.47817	0.267833982
3745.54946	0.267833982
3743.62076	0.266968326
3741.69205	0.266237942
3739.76334	0.26619628
3737.83464	0.266367137
3735.90593	0.26619628
3733.97722	0.26615483
3732.04851	0.265774379
3730.11981	0.265396825
3728.1911	0.264892269
3726.26239	0.265189873
3724.33368	0.264687303
3722.40498	0.26481715
3720.47627	0.264779874
3718.54756	0.264115433
3716.61886	0.263784461
3714.69015	0.263784461
3712.76144	0.264411028
3710.83273	0.264540338
3708.90403	0.263551402
3706.97532	0.263354037
3705.04661	0.263027295
3703.1179	0.262701363
3701.1892	0.26299505
3699.26049	0.262183837
3697.33178	0.262315271
3695.40308	0.26199262
3693.47437	0.262607626
3691.54566	0.262607626
3689.61695	0.26244622
3687.68825	0.262254902
3685.75954	0.261904762
3683.83083	0.261716372
3681.90213	0.261398176
3679.97342	0.261398176
3678.04471	0.26216545
3676.116	0.262325015
3674.1873	0.261846902
3672.25859	0.261818182
3670.32988	0.261947973
3668.40117	0.261158022
3666.47247	0.26006006
3664.54376	0.26003595
3662.61505	0.259724716
3660.68635	0.260011955
3658.75764	0.260011955
3656.82893	0.260454002
3654.90022	0.259988074
3652.97152	0.259988074
3651.04281	0.260298507
3649.1141	0.260143198
3647.18539	0.25980975
3645.25669	0.258886256
3643.32798	0.258712345
3641.39927	0.258254717
3639.47057	0.258539458
3637.54186	0.258235294
3635.61315	0.257931845
3633.68444	0.258519389
3631.75574	0.25867137
3629.82703	0.258975868
3627.89832	0.258802817
3625.96961	0.257894737
3624.04091	0.257292882
3622.1122	0.257876313
3620.18349	0.257876313
3618.25479	0.257575758
3616.32608	0.257126236
3614.39737	0.256827426
3612.46866	0.256678281
3610.53996	0.257109692
3608.61125	0.256662804
3606.68254	0.256069364
3604.75384	0.256055363
3602.82513	0.255760369
3600.89642	0.255466053
3598.96771	0.255747126
3597.03901	0.255453502
3595.1103	0.25516055
3593.18159	0.25486827
3591.25288	0.254576659
3589.32418	0.255148741
3587.39547	0.254857143
3585.46676	0.254846066
3583.53806	0.254266212
3581.60935	0.253977273
3579.68064	0.254256527
3577.75193	0.253968254
3575.82323	0.254102999
3573.89452	0.253815715
3571.96581	0.253672316
3570.0371	0.253672316
3568.1084	0.254237288
3566.17969	0.253807107
3564.25098	0.253235791
3562.32228	0.253370787
3560.39357	0.252944476
3558.46486	0.252661064
3556.53615	0.252937885
3554.60745	0.252796421
3552.67874	0.252513966
3550.75003	0.252232143
3548.82133	0.251950948
3546.89262	0.252367688
3544.96391	0.251946607
3543.0352	0.251526929
3541.1065	0.25124792
3539.17779	0.250969529
3537.24908	0.251245158
3535.32037	0.250828729
3533.39167	0.250551876
3531.46296	0.250965251
3529.53425	0.250826902
3527.60555	0.250688705
3525.67684	0.250412768
3523.74813	0.250137438
3521.81942	0.249725576
3519.89072	0.25
3517.96201	0.249726177
3516.0333	0.249452954
3514.10459	0.249590388
3512.17589	0.249318058
3510.24718	0.249046322
3508.31847	0.248775177
3506.38977	0.248504622
3504.46106	0.248369565
3502.53235	0.248507868
3500.60364	0.248238482
3498.67494	0.248376623
3496.74623	0.248108108
3494.81752	0.24838013
3492.88882	0.24811219
3490.96011	0.247844828
3489.0314	0.247578041
3487.10269	0.247849462
3485.17399	0.247450349
3483.24528	0.247184987
3481.31657	0.246920193
3479.38786	0.247058824
3477.45916	0.246794872
3475.53045	0.246531483
3473.60174	0.246670218
3471.67304	0.246407664
3469.74433	0.246014878
3467.81562	0.246284501
3465.88691	0.246422893
3463.95821	0.24616199
3462.0295	0.246300211
3460.10079	0.24591029
3458.17208	0.245651028
3456.24338	0.245263158
3454.31467	0.244876511
3452.38596	0.245144357
3450.45726	0.244887257
3448.52855	0.245154531
3446.59984	0.244769874
3444.67113	0.245036573
3442.74243	0.244653104
3440.81372	0.244791667
3438.88501	0.244409776
3436.95631	0.244029076
3435.0276	0.243649559
3433.09889	0.24378882
3431.17018	0.243410853
3429.24148	0.243550052
3427.31277	0.243173622
3425.38406	0.243312757
3423.45535	0.242937853
3421.52665	0.243076923
3419.59794	0.243215566
3417.66923	0.242718447
3415.74053	0.242857143
3413.81182	0.242485991
3411.88311	0.242239186
3409.9544	0.241869919
3408.0257	0.24213198
3406.09699	0.241763811
3404.16828	0.241902834
3402.23957	0.241536129
3400.31087	0.241675076
3398.38216	0.241309824
3396.45345	0.2413273
3394.52475	0.240963855
3392.59604	0.240981964
3390.66733	0.241
3388.73862	0.241017964
3386.80992	0.240657698
3384.88121	0.24079602
3382.9525	0.240437158
3381.0238	0.240456123
3379.09509	0.24009901
3377.16638	0.240237271
3375.23767	0.23988154
3373.30897	0.239408867
3371.38026	0.239547467
3369.45155	0.239194499
3367.52284	0.239333006
3365.59414	0.238981391
3363.66543	0.239119804
3361.73672	0.238653001
3359.80802	0.238791423
3357.87931	0.238442822
3355.9506	0.238581147
3354.02189	0.238118332
3352.09319	0.238256659
3350.16448	0.237911025
3348.23577	0.238049252
3346.30706	0.237704918
3344.37836	0.237728585
3342.44965	0.23786641
3340.52094	0.237523992
3338.59224	0.237661715
3336.66353	0.237320574
3334.73482	0.237344795
3332.80611	0.237005246
3330.87741	0.236666667
3328.9487	0.236692015
3327.01999	0.236829616
3325.09129	0.236492891
3323.16258	0.236157123
3321.23387	0.236183278
3319.30516	0.236320755
3317.37646	0.236457843
3315.44775	0.236124177
3313.51904	0.236150235
3311.59033	0.235707591
3309.66163	0.235734331
3307.73292	0.235404017
3305.80421	0.235541045
3303.87551	0.235102421
3301.9468	0.235130112
3300.01809	0.234693878
3298.08938	0.23483094
3296.16068	0.234396671
3294.23197	0.234533703
3292.30326	0.234101382
3290.37455	0.23423838
3288.44585	0.23426734
3286.51714	0.233944954
3284.58843	0.233974359
3282.65973	0.233653406
3280.73102	0.23368325
3278.80231	0.233257403
3276.8736	0.233287858
3274.9449	0.232864276
3273.01619	0.233000907
3271.08748	0.233031674
3269.15878	0.232610659
3267.23007	0.232746955
3265.30136	0.232778028
3263.37265	0.232464029
3261.44395	0.232495512
3259.51524	0.232078853
3257.58653	0.232214765
3255.65782	0.231799911
3253.72912	0.231489741
3251.80041	0.231522707
3249.8717	0.231555556
3247.943	0.231691079
3246.01429	0.231382979
3244.08558	0.231415929
3242.15687	0.231007067
3240.22817	0.230701367
3238.29946	0.230735359
3236.37075	0.230769231
3234.44204	0.230364195
3232.51334	0.230398598
3230.58463	0.229995627
3228.65592	0.230131004
3226.72722	0.23016565
3224.79851	0.229765013
3222.8698	0.229900043
3220.94109	0.229501085
3219.01239	0.229536596
3217.08368	0.229139645
3215.15497	0.229175658
3213.22627	0.22887931
3211.29756	0.22848537
3209.36885	0.228522337
3207.44014	0.228032576
3205.51144	0.228167808
3203.58273	0.227777778
3201.65402	0.2278157
3199.72531	0.227950575
3197.79661	0.227562739
3195.8679	0.227600849
3193.93919	0.22763883
3192.01049	0.227676682
3190.08178	0.227291931
3188.15307	0.227004219
3186.22436	0.227042965
3184.29566	0.22666106
3182.36695	0.226700252
3180.43824	0.226739313
3178.50953	0.226778243
3176.58083	0.226817043
3174.65212	0.226438699
3172.72341	0.226477935
3170.79471	0.226101413
3168.866	0.225819842
3166.93729	0.225859925
3165.00858	0.22548614
3163.07988	0.225526642
3161.15117	0.22556701
3159.22246	0.225195554
3157.29376	0.225236334
3155.36505	0.22527698
3153.43634	0.224907825
3151.50763	0.224539877
3149.57893	0.224581462
3147.65022	0.224714519
3145.72151	0.224348534
3143.7928	0.224390244
3141.8641	0.224431818
3139.93539	0.223977319
3138.00668	0.224110032
3136.07798	0.223747981
3134.14927	0.223387097
3132.22056	0.223429952
3130.29185	0.223382885
3128.36315	0.223024469
3126.43444	0.223157051
3124.50573	0.2228
3122.57702	0.22284345
3120.64832	0.222886762
3118.71961	0.222841226
3116.7909	0.222487088
3114.8622	0.222530742
3112.93349	0.222178218
3111.00478	0.221826809
3109.07607	0.221871299
3107.14737	0.221828211
3105.21866	0.22147915
3103.28995	0.221611002
3101.36125	0.22126324
3099.43254	0.221308265
3097.50383	0.221266615
3095.57512	0.220921155
3093.64642	0.220966485
3091.71771	0.221011673
3089.789	0.220668221
3087.86029	0.220240403
3085.93159	0.220286489
3084.00288	0.220417633
3082.07417	0.22007722
3080.14547	0.220123362
3078.21676	0.220084648
3076.28805	0.219746446
3074.35934	0.219325153
3072.43064	0.219372129
3070.50193	0.219036697
3068.57322	0.219167621
3066.64451	0.21921464
3064.71581	0.218880853
3062.7871	0.218928164
3060.85839	0.218892261
3058.92969	0.218560606
3057.00098	0.218229955
3055.07227	0.218195545
3053.14356	0.217866566
3051.21486	0.217914942
3049.28615	0.218045113
3047.35744	0.217717718
3045.42874	0.217766117
3043.50003	0.217814371
3041.57132	0.217488789
3039.64261	0.217537313
3037.71391	0.217132216
3035.7852	0.217181108
3033.85649	0.216858522
3031.92778	0.216617211
3029.99908	0.216666667
3028.07037	0.216715976
3026.14166	0.216395864
3024.21296	0.216076696
3022.28425	0.216206262
3020.35554	0.216255976
3018.42683	0.215938303
3016.49813	0.216067498
3014.56942	0.215750916
3012.64071	0.215801024
3010.712	0.215564487
3008.7833	0.215328467
3006.85459	0.215014577
3004.92588	0.21477976
3002.99718	0.214909091
3001.06847	0.2146749
2999.13976	0.214441219
2997.21105	0.214285714
2995.28235	0.214130435
2993.35364	0.21397538
2991.42493	0.21382055
2989.49623	0.213743219
2987.56752	0.213665944
2985.63881	0.213665944
2983.7101	0.213304411
2981.7814	0.213304411
2979.85269	0.213096961
2977.92398	0.212889211
2975.99527	0.212835388
2974.06657	0.2128587
2972.13786	0.212595559
2970.20915	0.212408759
2968.28045	0.212586901
2966.35174	0.212609971
2964.42303	0.21239912
2962.49432	0.212243402
2960.56562	0.21214338
2958.63691	0.211889132
2956.7082	0.21184593
2954.77949	0.211726384
2952.85079	0.211684097
2950.92208	0.211358735
2948.99337	0.211186805
2947.06467	0.211166786
2945.13596	0.210940293
2943.20725	0.210789568
2941.27854	0.210789568
2939.34984	0.210432297
2937.42113	0.210507505
2935.49242	0.210150107
2933.56372	0.210075027
2931.63501	0.21
2929.7063	0.209775241
2927.77759	0.209832561
2925.84889	0.209459459
2923.92018	0.209648812
2921.99147	0.209409268
2920.06276	0.209449929
2918.13406	0.209065355
2916.20535	0.20910683
2914.27664	0.209148045
2912.34794	0.208840933
2910.41923	0.208608122
2908.49052	0.208520956
2906.56181	0.208362129
2904.63311	0.208275862
2902.7044	0.208118335
2900.77569	0.207961565
2898.84698	0.207805546
2896.91828	0.207721216
2894.98957	0.207296284
2893.06086	0.207213338
2891.13216	0.207201087
2889.20345	0.20684978
2887.27474	0.206838186
2885.34603	0.20696652
2883.41733	0.206756757
2881.48862	0.206884914
2879.55991	0.206745363
2877.63121	0.206675657
2875.7025	0.206199461
2873.77379	0.206327836
2871.84508	0.205981183
2869.91638	0.205971151
2867.98767	0.205961152
2866.05896	0.205616851
2864.13025	0.205342237
2862.20155	0.205470314
2860.27284	0.205196536
2858.34413	0.204991681
2856.41543	0.204983389
2854.48672	0.204975124
2852.55801	0.20489904
2850.6293	0.204688016
2848.7006	0.204739961
2846.77189	0.204463407
2844.84318	0.204188482
2842.91447	0.204308094
2840.98577	0.204168023
2839.05706	0.20402859
2837.12835	0.203889789
2835.19965	0.203817535
2833.27094	0.203488372
2831.34223	0.203482748
2829.41352	0.203477141
2827.48482	0.203150113
2825.55611	0.203145058
2823.6274	0.202819609
2821.6987	0.20288
2819.76999	0.202620646
2817.84128	0.202616465
2815.91257	0.202293724
2813.98387	0.202036271
2812.05516	0.202033037
2810.12645	0.20177665
2808.19774	0.201837769
2806.26904	0.201898734
2804.34033	0.201643489
2802.41162	0.201704545
2800.48292	0.201450189
2798.55421	0.201447907
2796.6255	0.201194593
2794.69679	0.200878845
2792.76809	0.200626959
2790.83938	0.200688791
2788.91067	0.200750469
2786.98196	0.20043709
2785.05326	0.200498909
2783.12455	0.200249144
2781.19584	0.200311042
2779.26714	0.2
2777.33843	0.199813838
2775.40972	0.199504337
2773.48101	0.199566832
2771.55231	0.199320148
2769.6236	0.199382716
2767.69489	0.199136868
2765.76619	0.199199507
2763.83748	0.19895449
2761.90877	0.198710074
2759.98006	0.198773006
2758.05136	0.198529412
2756.12265	0.198592411
2754.19394	0.198349633
2752.26523	0.198107448
2750.33653	0.198170732
2748.40782	0.197929354
2746.47911	0.197688564
2744.55041	0.197752126
2742.6217	0.197512136
2740.69299	0.197575758
2738.76428	0.197639225
2736.83558	0.197400242
2734.90687	0.197161836
2732.97816	0.196924005
2731.04945	0.196686747
2729.12075	0.19645006
2727.19204	0.196213942
2725.26333	0.196278511
2723.33463	0.196284088
2721.40592	0.196049087
2719.47721	0.196113602
2717.5485	0.195879367
2715.6198	0.19564569
2713.69109	0.195710456
2711.76238	0.195477536
2709.83368	0.195542348
2707.90497	0.195310181
2705.97626	0.195375037
2704.04755	0.195143619
2702.11885	0.194912748
2700.19014	0.194682422
2698.26143	0.194747713
2696.33272	0.194518126
2694.40402	0.194583456
2692.47531	0.194648633
2690.5466	0.194419971
2688.6179	0.194191845
2686.68919	0.193964254
2684.76048	0.193737196
2682.83177	0.193746347
2680.90307	0.19352014
2678.97436	0.193586006
2677.04565	0.193360513
2675.11694	0.193426411
2673.18824	0.193201627
2671.25953	0.192977365
2669.33082	0.192753623
2667.40212	0.192819919
2665.47341	0.192652589
2663.5447	0.19237435
2661.61599	0.192152337
2659.68729	0.19221902
2657.75858	0.191997697
2655.82987	0.191776883
2653.90117	0.191843768
2651.97246	0.191623637
2650.04375	0.191690544
2648.11504	0.191471093
2646.18634	0.191483281
2644.25763	0.19126463
2642.32892	0.191046478
2640.40021	0.191113643
2638.47151	0.190896159
2636.5428	0.190733371
2634.61409	0.190516752
2632.68539	0.190584231
2630.75668	0.190368272
2628.82797	0.190435767
2626.89926	0.190220464
2624.97056	0.190287973
2623.04185	0.190019735
2621.11314	0.189805689
2619.18443	0.189592124
2617.25573	0.189379039
2615.32702	0.189166433
2613.39831	0.189234651
2611.46961	0.188969765
2609.5409	0.189090909
2607.61219	0.188879575
2605.68348	0.188895089
2603.75478	0.188684504
2601.82607	0.188474388
2599.89736	0.188542825
2597.96865	0.188385663
2596.03995	0.18817652
2594.11124	0.18796784
2592.18253	0.187984496
2590.25383	0.188053097
2588.32512	0.187845304
2586.39641	0.187637969
2584.4677	0.187431092
2582.539	0.18744839
2580.61029	0.187242233
2578.68158	0.187036528
2576.75288	0.187105624
2574.82417	0.186900521
2572.89546	0.186969614
2570.96675	0.186714051
2569.03805	0.186510104
2567.10934	0.186306601
2565.18063	0.186376022
2563.25192	0.186173108
2561.32322	0.185970636
2559.39451	0.185768604
2557.4658	0.185838307
2555.5371	0.185586562
2553.60839	0.185385656
2551.67968	0.185185185
2549.75097	0.185255198
2547.82227	0.185005394
2545.89356	0.185075431
2543.96485	0.184876211
2542.03614	0.184946237
2540.10744	0.184747583
2538.17873	0.184549356
2536.25002	0.184351554
2534.32132	0.184104897
2532.39261	0.183908046
2530.4639	0.183662573
2528.53519	0.183733333
2526.60649	0.18353756
2524.67778	0.183608302
2522.74907	0.183678894
2520.82037	0.183483802
2518.89166	0.183554377
2516.96295	0.183311258
2515.03424	0.183117227
2513.10554	0.182923606
2511.17683	0.182730393
2509.24812	0.182537589
2507.31941	0.182608696
2505.39071	0.182679653
2503.462	0.182439537
2501.53329	0.182247899
2499.60459	0.182318993
2497.67588	0.182080168
2495.74717	0.181889558
2493.81846	0.181699346
2491.88976	0.181509533
2489.96105	0.181533646
2488.03234	0.181605003
2486.10363	0.181415929
2484.17493	0.181227249
2482.24622	0.181251623
2480.31751	0.181063554
2478.38881	0.180875875
2476.4601	0.180688584
2474.53139	0.180455016
2472.60268	0.180268595
2470.67398	0.180294042
2468.74527	0.18010822
2466.81656	0.18018018
2464.88786	0.179994857
2462.95915	0.179809915
2461.03044	0.179835813
2459.10173	0.179651461
2457.17303	0.179677502
2455.24432	0.179493736
2453.31561	0.179310345
2451.3869	0.179127328
2449.4582	0.179153925
2447.52949	0.178971487
2445.60078	0.17878942
2443.67208	0.178816358
2441.74337	0.178634864
2439.81466	0.178408515
2437.88595	0.178227848
2435.95725	0.178047547
2434.02854	0.178120263
2432.09983	0.177895534
2430.17112	0.177968238
2428.24242	0.177744209
2426.31371	0.177565392
2424.385	0.177386935
2422.4563	0.177164366
2420.52759	0.177237403
2418.59888	0.177015523
2416.67017	0.177088544
2414.74147	0.176911544
2412.81276	0.176940354
2410.88405	0.176763899
2408.95535	0.176587796
2407.02664	0.176412043
2405.09793	0.176192843
2403.16922	0.176266137
2401.24052	0.176047607
2399.31181	0.175873173
2397.3831	0.175946548
2395.45439	0.175729115
2393.52569	0.175555556
2391.59698	0.175382338
2389.66827	0.175209463
2387.73957	0.17523997
2385.81086	0.175067617
2383.88215	0.175098232
2381.95344	0.174926398
2380.02474	0.174754902
2378.09603	0.174785802
2376.16732	0.17461482
2374.23861	0.174688493
2372.30991	0.17451794
2370.3812	0.17434772
2368.45249	0.174177832
2366.52379	0.174008275
2364.59508	0.173796791
2362.66637	0.173870811
2360.73766	0.173659956
2358.80896	0.173449612
2356.88025	0.173523717
2354.95154	0.173313996
2353.02284	0.17334621
2351.09413	0.173178968
2349.16542	0.172970369
2347.23671	0.172803851
2345.30801	0.172596154
2343.3793	0.172711987
2341.45059	0.172786177
2339.52188	0.172620475
2337.59318	0.172413793
2335.66447	0.172207606
2333.73576	0.172240803
2331.80706	0.172076372
2329.87835	0.171871275
2327.94964	0.171945701
2326.02093	0.171741199
2324.09223	0.171537182
2322.16352	0.171570954
2320.23481	0.17140825
2318.3061	0.171205304
2316.3774	0.171239357
2314.44869	0.17103709
2312.51998	0.17087562
2310.59128	0.17067421
2308.66257	0.170513424
2306.73386	0.170548106
2304.80515	0.170387779
2302.87645	0.170187793
2300.94774	0.170028143
2299.01903	0.170063247
2297.09033	0.169904049
2295.16162	0.16970547
2293.23291	0.169780476
2291.3042	0.169622025
2289.3755	0.169463869
2287.44679	0.169538891
2285.51808	0.169381107
2283.58937	0.16918429
2281.66067	0.168987929
2279.73196	0.16906308
2277.80325	0.168906395
2275.87455	0.168710947
2273.94584	0.168786127
2272.01713	0.168630169
2270.08842	0.168435625
2268.15972	0.168280314
2266.23101	0.168355596
2264.3023	0.168161951
2262.37359	0.168007355
2260.44489	0.167814509
2258.51618	0.16766055
2256.58747	0.167468499
2254.65877	0.167505721
2252.73006	0.167314286
2250.80135	0.167389815
2248.87264	0.167198905
2246.94394	0.16700843
2245.01523	0.166818389
2243.08652	0.166628779
2241.15782	0.166666667
2239.22911	0.166477659
2237.3004	0.166477916
2235.37169	0.166289593
2233.44299	0.166101695
2231.51428	0.16610246
2229.58557	0.165915239
2227.65686	0.165953614
2225.72816	0.165766982
2223.79945	0.165580768
2221.87074	0.16561939
2219.94204	0.165433759
2218.01333	0.165248545
2216.08462	0.165287408
2214.15591	0.165065892
2212.22721	0.164881749
2210.2985	0.164920883
2208.36979	0.164737311
2206.44108	0.164776518
2204.51238	0.164630082
2202.58367	0.164447403
2200.65496	0.164523282
2198.72626	0.164341085
2196.79755	0.164159292
2194.86884	0.164014147
2192.94013	0.163833076
2191.01143	0.16387296
2189.08272	0.163692443
2187.15401	0.163548316
2185.22531	0.163624368
2183.2966	0.16344464
2181.36789	0.163301141
2179.43918	0.163122122
2177.51048	0.163198248
2175.58177	0.163019694
2173.65306	0.163060109
2171.72435	0.162882096
2169.79565	0.162739965
2167.86694	0.162598082
2165.93823	0.162421076
2164.00953	0.162279748
2162.08082	0.162103433
2160.15211	0.162144563
2158.2234	0.162003904
2156.2947	0.162080173
2154.36599	0.161939814
2152.43728	0.161764706
2150.50857	0.161659823
2148.57987	0.161589976
2146.65116	0.161624892
2144.72245	0.161589976
2142.79375	0.161380798
2140.86504	0.161248654
2138.93633	0.161151697
2137.00762	0.160978751
2135.07892	0.161020583
2133.15021	0.160882605
2131.2215	0.160710464
2129.2928	0.160504381
2127.36409	0.160333049
2125.43538	0.160162081
2123.50667	0.160238653
2121.57797	0.160068114
2119.64926	0.160110568
2117.72055	0.159974506
2115.79184	0.159804754
2113.86314	0.159635361
2111.93443	0.159466328
2110.00572	0.159509202
2108.07702	0.159306993
2106.14831	0.159349937
2104.2196	0.159392789
2102.29089	0.159224937
2100.36219	0.158847044
2098.43348	0.158680118
2096.50477	0.158723494
2094.57606	0.158557047
2092.64736	0.158390949
2090.71865	0.158434491
2088.78994	0.158235786
2086.86124	0.158070578
2084.93253	0.158081335
2083.00382	0.157916667
2081.07511	0.157927591
2079.14641	0.157763459
2077.2177	0.157807309
2075.28899	0.15761095
2073.36029	0.15744769
2071.43158	0.157284768
2069.50287	0.157154673
2067.57416	0.157263897
2065.64546	0.157101569
2063.71675	0.157081014
2061.78804	0.156854673
2059.85933	0.156866776
2057.93063	0.156673511
2056.00192	0.156512821
2054.07321	0.156525302
2052.14451	0.156365125
2050.2158	0.156409732
2048.28709	0.15625
2046.35838	0.156294634
2044.42968	0.156135344
2042.50097	0.15597638
2040.57226	0.156021155
2038.64355	0.155830963
2036.71485	0.155672823
2034.78614	0.155483479
2032.85743	0.155388979
2030.92873	0.155326043
2029.00002	0.155231734
2027.07131	0.155012126
2025.1426	0.15496368
2023.2139	0.154977832
2021.28519	0.154821824
2019.35648	0.154697244
2017.42778	0.154541801
2015.49907	0.154386669
2013.57036	0.154432411
2011.64165	0.1542777
2009.71295	0.154323459
2007.78424	0.154169166
2005.85553	0.154015182
2003.92682	0.153861505
2001.99812	0.153738784
2000.06941	0.153585657
1998.1407	0.153631841
1996.212	0.153509644
1994.28329	0.15358633
1992.35458	0.153296267
1990.42587	0.153144217
1988.49717	0.153160293
1986.56846	0.153008709
1984.63975	0.152887658
1982.71104	0.152964427
1980.78234	0.152813425
1978.85363	0.152692839
1976.92492	0.15234529
1974.99622	0.152422213
1973.06751	0.15227228
1971.1388	0.152152546
1969.21009	0.152229424
1967.28139	0.152109912
1965.35268	0.151960784
1963.42397	0.151901215
1961.49527	0.151854032
1959.56656	0.151669941
1957.63785	0.151461644
1955.70914	0.151349237
1953.78044	0.151219512
1951.85173	0.151237576
1949.92302	0.151090343
1947.99431	0.151137911
1946.06561	0.150991061
1944.1369	0.150903088
1942.20819	0.15078595
1940.27949	0.150581395
1938.35078	0.150377395
1936.42207	0.150232019
1934.49336	0.150280085
1932.56466	0.150135083
1930.63595	0.15018315
1928.70724	0.150067424
1926.77853	0.149951877
1924.84983	0.149865333
1922.92112	0.149750096
1920.99241	0.149663785
1919.06371	0.149769585
1917.135	0.149625935
1915.20629	0.149396667
1913.27758	0.149196634
1911.34888	0.149111069
1909.42017	0.148997135
1907.49146	0.149045802
1905.56276	0.148875334
1903.63405	0.148733575
1901.70534	0.148620362
1899.77663	0.148507321
1897.84793	0.148584458
1895.91922	0.14849981
1893.99051	0.148387097
1892.0618	0.148274554
1890.1331	0.14819026
1888.20439	0.148049981
1886.27568	0.147881997
1884.34698	0.147714394
1882.41827	0.147602869
1880.48956	0.147680121
1878.56085	0.14756879
1876.63215	0.147457627
1874.70344	0.147346632
1872.77473	0.147263494
1870.84602	0.147263494
1868.91732	0.147235803
1866.98861	0.147042254
1865.0599	0.146794151
1863.1312	0.146816479
1861.20249	0.146679139
1859.27378	0.146569452
1857.34507	0.146432574
1855.41637	0.146295951
1853.48766	0.146159582
1851.55895	0.146050671
1849.63025	0.145996276
1847.70154	0.146182495
1845.77283	0.14623696
1843.84412	0.146128071
1841.91542	0.146042363
1839.98671	0.145771513
1838.058	0.145609485
1836.12929	0.145501666
1834.20059	0.145420907
1832.27188	0.145420907
1830.34317	0.145420907
1828.41447	0.145471349
1826.48576	0.145337027
1824.55705	0.145176167
1822.62834	0.144988946
1820.69964	0.144828855
1818.77093	0.144538433
1816.84222	0.144458739
1814.91351	0.144562821
1812.98481	0.144536272
1811.0561	0.144326111
1809.12739	0.144220183
1807.19869	0.144087993
1805.26998	0.144035184
1803.34127	0.144061584
1801.41256	0.144087993
1799.48386	0.144061584
1797.55515	0.143982414
1795.62644	0.143825577
1793.69774	0.143747708
1791.76903	0.143774069
1789.84032	0.143616047
1787.91161	0.143327842
1785.98291	0.143354083
1784.0542	0.143197217
1782.12549	0.1430141
1780.19678	0.142804833
1778.26808	0.14262175
1776.33937	0.142673993
1774.41066	0.142857143
1772.48196	0.142988253
1770.55325	0.142778491
1768.62454	0.142621448
1766.69583	0.142490842
1764.76713	0.142255584
1762.83842	0.142150577
1760.90971	0.142228739
1758.981	0.142071494
1757.0523	0.141992295
1755.12359	0.141965106
1753.19488	0.142094607
1751.26618	0.142092637
1749.33747	0.141933099
1747.40876	0.141642012
1745.48005	0.141588007
1743.55135	0.141401038
1741.62264	0.14142539
1739.69393	0.141370983
1737.76523	0.141130532
1735.83652	0.141207154
1733.90781	0.141312453
1731.9791	0.141049498
1730.0504	0.140656894
1728.12169	0.140555556
1726.19298	0.140506563
1724.26427	0.140324963
1722.33557	0.140354113
1720.40686	0.140354113
1718.47815	0.140380004
1716.54945	0.140383198
1714.62074	0.140128558
1712.69203	0.139875503
1710.76332	0.139751553
1708.83462	0.139755519
1706.90591	0.139835916
1704.9772	0.139708561
1703.04849	0.139683118
1701.11979	0.139916196
1699.19108	0.139894488
1697.26237	0.139539104
1695.33367	0.139366516
1693.40496	0.139144559
1691.47625	0.139048991
1689.54754	0.138973897
1687.61884	0.138843868
1685.69013	0.139019113
1683.76142	0.139019113
1681.83272	0.138768898
1679.90401	0.138315071
1677.9753	0.13829023
1676.04659	0.138339921
1674.11789	0.138135441
1672.18918	0.138085832
1670.26047	0.138110632
1668.33176	0.138141371
1666.40306	0.137918682
1664.47435	0.1377149
1662.54564	0.137535817
1660.61694	0.137437366
1658.68823	0.137209302
1656.75952	0.137430568
1654.83081	0.137720245
1652.90211	0.137688985
1650.9734	0.137416921
1649.04469	0.137244349
1647.11598	0.137089539
1645.18728	0.136917563
1643.25857	0.13667263
1641.32986	0.136396139
1639.40116	0.136469326
1637.47245	0.136510211
1635.54374	0.13655914
1633.61503	0.136339238
1631.68633	0.136095731
1629.75762	0.136071429
1627.82891	0.136120043
1625.90021	0.135989993
1623.9715	0.136014298
1622.04279	0.135787029
1620.11408	0.135738525
1618.18538	0.135787029
1616.25667	0.135762772
1614.32796	0.13559322
1612.39925	0.135270005
1610.47055	0.135091784
1608.54184	0.134913563
1606.61313	0.135043649
1604.68443	0.134995548
1602.75572	0.134947481
1600.82701	0.134899448
1598.8983	0.134827464
1596.9696	0.134601707
1595.04089	0.134529945
1593.11218	0.134434381
1591.18347	0.13429129
1589.25477	0.134325713
1587.32606	0.134206799
1585.39735	0.134088095
1583.46865	0.133969601
1581.53994	0.133874956
1579.61123	0.133851316
1577.68252	0.133898604
1575.75382	0.13380406
1573.82511	0.133768065
1571.8964	0.133650291
1569.96769	0.133826378
1568.03899	0.133661625
1566.11028	0.133473832
1564.18157	0.133403546
1562.25287	0.133544193
1560.32416	0.13372093
1558.39545	0.133768065
1556.46674	0.133591141
1554.53804	0.13319313
1552.60933	0.132983377
1550.68062	0.132867133
1548.75192	0.132669114
1546.82321	0.13271551
1544.8945	0.132924694
1542.96579	0.132982456
1541.03709	0.133052484
1539.10838	0.132819345
1537.17967	0.132424878
1535.25096	0.13226313
1533.32226	0.132368329
1531.39355	0.132229965
1529.46484	0.132137883
1527.53614	0.132032747
1525.60743	0.132124804
1523.67872	0.132111693
1521.75001	0.132273283
1519.82131	0.13202934
1517.8926	0.131891137
1515.96389	0.131601883
1514.03518	0.131358885
1512.10648	0.131404671
1510.17777	0.131565172
1508.24906	0.131574349
1506.32036	0.131482452
1504.39165	0.131093315
1502.46294	0.130993746
1500.53423	0.130865485
1498.60553	0.131002088
1496.67682	0.130850879
1494.74811	0.130563282
1492.81941	0.130563282
1490.8907	0.130722367
1488.96199	0.130767891
1487.03328	0.130457471
1485.10458	0.130125087
1483.17587	0.129906217
1481.24716	0.129928782
1479.31845	0.129867872
1477.38975	0.129897266
1475.46104	0.129842932
1473.53233	0.129917818
1471.60363	0.129636109
1469.67492	0.129438517
1467.74621	0.129179065
1465.8175	0.129162285
1463.8888	0.129207574
1461.96009	0.129054883
1460.03138	0.129128602
1458.10267	0.129446988
1456.17397	0.129248107
1454.24526	0.128930265
1452.31655	0.128681627
1450.38785	0.128461269
1448.45914	0.128613983
1446.53043	0.128523901
1444.60172	0.128411477
1442.67302	0.128321678
1440.74431	0.128191675
1438.8156	0.128371278
1436.8869	0.128353498
1434.95819	0.128263536
1433.02948	0.12795379
1431.10077	0.12795379
1429.17207	0.12777875
1427.24336	0.127603711
1425.31465	0.127495622
1423.38594	0.127629734
1421.45724	0.127853881
1419.52853	0.127726953
1417.59982	0.127573465
1415.67112	0.127483735
1413.74241	0.127330285
1411.8137	0.127243928
1409.88499	0.127179849
1407.95629	0.127115656
1406.02758	0.12705135
1404.09887	0.126964506
1402.17016	0.12687754
1400.24146	0.126812876
1398.31275	0.126880198
1396.38404	0.126703238
1394.45534	0.126613616
1392.52663	0.126633698
1390.59792	0.126566637
1388.66921	0.126633698
1386.74051	0.126479421
1384.8118	0.126235876
1382.88309	0.126169049
1380.95439	0.126124537
1379.02568	0.125925926
1377.09697	0.125948139
1375.16826	0.125816128
1373.23956	0.125793931
1371.31085	0.125749559
1369.38214	0.125705219
1367.45343	0.125506787
1365.52473	0.125528914
1363.59602	0.125551049
1361.66731	0.125308424
1359.73861	0.125198098
1357.8099	0.125065963
1355.88119	0.125
1353.95248	0.124956063
1352.02378	0.124890216
1350.09507	0.124802528
1348.16636	0.124561404
1346.23765	0.124495879
1344.30895	0.124430424
1342.38024	0.124408621
1340.45153	0.124408621
1338.52283	0.124365038
1336.59412	0.124256213
1334.66541	0.124125874
1332.7367	0.124017467
1330.808	0.123952514
1328.87929	0.123887629
1326.95058	0.12384441
1325.02188	0.12384441
1323.09317	0.123669981
1321.16446	0.123517097
1319.23575	0.123385689
1317.30705	0.123407226
1315.37834	0.123450323
1313.44963	0.123318777
1311.52092	0.123165618
1309.59222	0.123012406
1307.66351	0.123033904
1305.7348	0.122923588
1303.8061	0.122813156
1301.87739	0.122702608
1299.94868	0.122613417
1298.01997	0.122699387
1296.09127	0.122610068
1294.16256	0.122345094
1292.23385	0.12227688
1290.30514	0.122230039
1288.37644	0.122161591
1286.44773	0.122114537
1284.51902	0.122067384
1282.59032	0.121865065
1280.66161	0.12186063
1278.7329	0.121679065
1276.80419	0.12171753
1274.87549	0.1216
1272.94678	0.121703493
1271.01807	0.121715818
1269.08937	0.121478557
1267.16066	0.121326843
1265.23195	0.121195652
1263.30324	0.121294781
1261.37454	0.121107266
1259.44583	0.121019108
1257.51712	0.120915033
1255.58841	0.120970663
1253.65971	0.120932755
1251.731	0.12066474
1249.80229	0.120484104
1247.87359	0.120571222
1245.94488	0.120521173
1244.01617	0.120492843
1242.08746	0.120283019
1240.15876	0.120050854
1238.23005	0.120043652
1236.30134	0.12003643
1234.37263	0.119868637
1232.44393	0.119861136
1230.51522	0.119692533
1228.58651	0.119706691
1226.65781	0.119537275
1224.7291	0.119551223
1222.80039	0.119380987
1220.87168	0.119232189
1218.94298	0.11908284
1217.01427	0.118910909
1215.08556	0.118968077
1213.15686	0.119003347
1211.22815	0.118896757
1209.29944	0.118580766
1207.37073	0.118472768
1205.44203	0.118364284
1203.51332	0.118255311
1201.58461	0.118145845
1199.6559	0.118035883
1197.7272	0.117925421
1195.79849	0.117814456
1193.86978	0.117893136
1191.94108	0.117781589
1190.01237	0.117647059
1188.08366	0.117365499
1186.15495	0.117296986
1184.22625	0.117250674
1182.29754	0.11705621
1180.36883	0.117008911
1178.44012	0.116847826
1176.51142	0.116663426
1174.58271	0.116478379
1172.654	0.116338083
1170.7253	0.116415574
1168.79659	0.116297313
1166.86788	0.116004719
1164.93917	0.115907747
1163.01047	0.115984983
1161.08176	0.11588748
1159.15305	0.115766481
1157.22435	0.115468843
1155.29564	0.115392294
1153.36693	0.115138166
1151.43822	0.114882507
1149.50952	0.114648398
1147.58081	0.114638091
1145.6521	0.114424833
1143.72339	0.114390393
1141.79469	0.114355728
1139.86598	0.114045864
1137.93727	0.113986445
1136.00857	0.113514627
1134.07986	0.113293364
1132.15115	0.113278008
1130.22244	0.113077884
1128.29374	0.112714345
1126.36503	0.112557749
1124.43632	0.112236287
1122.50761	0.112123781
1120.57891	0.111821086
1118.6502	0.111325198
1116.72149	0.11103938
1114.79279	0.110774556
1112.86408	0.110724385
1110.93537	0.110503282
1109.00666	0.110279551
1107.07796	0.109880372
1105.14925	0.1096501
1103.22054	0.109641256
1101.29184	0.109357384
1099.36313	0.109222751
1097.43442	0.109215017
1095.50571	0.109360731
1093.57701	0.109228303
1091.6483	0.109095085
1089.71959	0.108961069
1087.79088	0.108851398
1085.86218	0.108816705
1083.93347	0.108807083
1082.00476	0.108588813
1080.07606	0.108343126
1078.14735	0.108305805
1076.21864	0.108242539
1074.28993	0.108127376
1072.36123	0.107934239
1070.43252	0.107953188
1068.50381	0.107732823
1066.5751	0.107537206
1064.6464	0.107340554
1062.71769	0.107168718
1060.78898	0.10696999
1058.86028	0.106718409
1056.93157	0.106605148
1055.00286	0.106465727
1053.07415	0.106274319
1051.14545	0.106082725
1049.21674	0.105673241
1047.28803	0.105506823
1045.35933	0.105096318
1043.43062	0.104929234
1041.50191	0.104761905
1039.5732	0.104619897
1037.6445	0.104452055
1035.71579	0.104064643
1033.78708	0.103896104
1031.85837	0.103727317
1029.92967	0.103558282
1028.00096	0.103338243
1026.07225	0.103067485
1024.14355	0.102991663
1022.21484	0.10289074
1020.28613	0.102545277
1018.35742	0.102200489
1016.42872	0.101831502
1014.50001	0.101682516
1012.5713	0.10150925
1010.64259	0.101311953
1008.71389	0.101090909
1006.78518	0.100895233
1004.85647	0.100531658
1002.92777	0.100193143
1000.99906	0.099903475
999.07035	0.099638118
997.14164	0.099396864
995.21294	0.098938224
993.28423	0.098768413
991.35552	0.098380469
989.42682	0.098015489
987.49811	0.09769697
985.5694	0.097424684
983.64069	0.097198538
981.71199	0.097018573
979.78328	0.096639686
977.85457	0.096082779
975.92586	0.096015838
973.99716	0.095699727
972.06845	0.095333167
970.13974	0.094641963
968.21104	0.094424912
966.28233	0.094159114
964.35362	0.093639576
962.42491	0.093370445
960.49621	0.093377315
958.5675	0.092875318
956.63879	0.092672964
954.71008	0.092236741
952.78138	0.09184461
950.85267	0.091472868
948.92396	0.09140483
946.99526	0.091146513
945.06655	0.090694006
943.13784	0.090283294
941.20913	0.089914621
939.28043	0.089588378
937.35172	0.089033659
935.42301	0.089065497
933.49431	0.088821251
931.5656	0.088572227
929.63689	0.088243586
927.70818	0.087883959
925.77948	0.087467737
923.85077	0.086730269
921.92206	0.086272224
919.99335	0.086125808
918.06465	0.086002372
916.13594	0.085876721
914.20723	0.085498489
912.27853	0.085138847
910.34982	0.084824183
908.42111	0.08424337
906.4924	0.084017688
904.5637	0.083466581
902.63499	0.083171521
900.70628	0.08314239
898.77757	0.082671958
896.84887	0.082470785
894.92016	0.082265678
892.99145	0.082112436
891.06275	0.081955923
889.13404	0.081796032
887.20533	0.081661387
885.27662	0.081494662
883.34792	0.081324217
881.41921	0.080815435
879.4905	0.080603607
877.5618	0.080357143
875.63309	0.080015026
873.70438	0.079605762
871.77567	0.079480321
869.84697	0.079322295
867.91826	0.079519007
865.98955	0.079327862
864.06084	0.079133858
862.13214	0.07893693
860.20343	0.079105074
858.27472	0.078873239
856.34602	0.078606159
854.41731	0.078335373
852.4886	0.078471652
850.55989	0.078544853
848.63119	0.078586279
846.70248	0.078595318
844.77377	0.078637511
842.84506	0.078613694
840.91636	0.078589635
838.98765	0.078598889
837.05894	0.078574495
835.13024	0.078118256
833.20153	0.078490893
831.27282	0.078832753
829.34411	0.079142982
827.41541	0.079086116
825.4867	0.079028698
823.55799	0.07900577
821.62929	0.079393399
819.70058	0.079301075
817.77187	0.079622132
815.84316	0.07953005
813.91446	0.079891058
811.98575	0.079835766
810.05704	0.080696928
808.12833	0.081105991
806.19963	0.081944444
804.27092	0.082249071
802.34221	0.082517483
800.41351	0.082671649
798.4848	0.083216456
796.55609	0.084151473
794.62738	0.084579439
792.69868	0.08496732
790.76997	0.085820896
788.84126	0.08663251
786.91255	0.087523277
784.98385	0.087906977
783.05514	0.088795909
781.12643	0.089725709
779.19773	0.090148699
777.26902	0.090529248
775.34031	0.091415313
773.4116	0.092215014
771.4829	0.092969473
769.55419	0.093764434
767.62548	0.094557196
765.69678	0.095391705
763.76807	0.096224678
761.83936	0.097056118
759.91065	0.097516099
757.98195	0.097516099
756.05324	0.098021169
754.12453	0.098572087
752.19582	0.099676973
750.26712	0.100739372
748.33841	0.101388889
746.4097	0.102088167
744.481	0.102373197
742.55229	0.102659823
740.62358	0.102948058
738.69487	0.10370718
736.76617	0.104048964
734.83746	0.104865376
732.90875	0.105263158
730.98004	0.105188006
729.05134	0.105112279
727.12263	0.105566219
725.19392	0.105643994
723.26522	0.106156083
721.33651	0.106673161
719.4078	0.107737512
717.47909	0.107828656
715.55039	0.107425743
713.62168	0.107516177
711.69297	0.107160741
709.76427	0.107358871
707.83556	0.108066971
705.90685	0.108273749
703.97814	0.107969152
702.04944	0.108178054
700.12073	0.108333333
698.19202	0.108023073
696.26331	0.10723719
694.33461	0.107503991
692.4059	0.107238606
690.47719	0.107027027
688.54849	0.107356948
686.61978	0.107201759
684.69107	0.107162687
682.76236	0.107623318
680.83366	0.106900452
678.90495	0.107305936
676.97624	0.107718894
675.04753	0.10762071
673.11883	0.107520564
671.19012	0.108011869
669.26141	0.107913669
667.33271	0.107813446
665.404	0.10764526
663.47529	0.107540173
661.54658	0.107432854
659.61788	0.106624606
657.68917	0.106505102
655.76046	0.106382979
653.83176	0.106840391
651.90305	0.106649111
649.97434	0.107190413
648.04563	0.107070707
646.11693	0.106875425
644.18822	0.107142857
642.25951	0.107415107
640.3308	0.106993007
638.4021	0.106638418
636.47339	0.107066381
634.54468	0.107426099
632.61598	0.107221007
630.68727	0.10701107
628.75856	0.106955871
626.82985	0.105382866
624.90115	0.104454685
622.97244	0.103501946
621.04373	0.104018913
619.11502	0.103750998
617.18632	0.104284559
615.25761	0.103843009
613.3289	0.103135314
611.4002	0.103075644
609.47149	0.103015075
607.54278	0.103040541
605.61407	0.103918228
603.68537	0.10472103
601.75666	0.104852686
