4999.20917	0.439252336
4997.28046	0.439534884
4995.35176	0.438515081
4993.42305	0.439814815
4991.49434	0.438799076
4989.56564	0.440092166
4987.63693	0.43908046
4985.70822	0.440366972
4983.77951	0.439359268
4981.85081	0.440639269
4979.9221	0.439635535
4977.99339	0.440909091
4976.06468	0.439909297
4974.13598	0.439909297
4972.20727	0.441176471
4970.27856	0.439189189
4968.34986	0.438202247
4966.42115	0.439461883
4964.49244	0.440715884
4962.56373	0.439732143
4960.63503	0.440979955
4958.70632	0.44
4956.77761	0.43902439
4954.8489	0.440265487
4952.9202	0.439293598
4950.99149	0.440528634
4949.06278	0.43956044
4947.13408	0.438596491
4945.20537	0.439824945
4943.27666	0.441048035
4941.34795	0.440087146
4939.41925	0.441304348
4937.49054	0.440347072
4935.56183	0.441558442
4933.63313	0.440604752
4931.70442	0.441810345
4929.77571	0.440860215
4927.847	0.442060086
4925.9183	0.44111349
4923.98959	0.441364606
4922.06088	0.440425532
4920.13217	0.442553191
4918.20347	0.440677966
4916.27476	0.4397463
4914.34605	0.44092827
4912.41735	0.44
4910.48864	0.441176471
4908.55993	0.440251572
4906.63122	0.441422594
4904.70252	0.439583333
4902.77381	0.440748441
4900.8451	0.439834025
4898.91639	0.438923395
4896.98769	0.440993789
4895.05898	0.44214876
4893.13027	0.441237113
4891.20157	0.441478439
4889.27286	0.44057377
4887.34415	0.439672802
4885.41544	0.440816327
4883.48674	0.441955193
4881.55803	0.443089431
4879.62932	0.442190669
4877.70062	0.441295547
4875.77191	0.442424242
4873.8432	0.441532258
4871.91449	0.441767068
4869.98579	0.440881764
4868.05708	0.442
4866.12837	0.440239044
4864.19966	0.439363817
4862.27096	0.44047619
4860.34225	0.43960396
4858.41354	0.440711462
4856.48484	0.440944882
4854.55613	0.440944882
4852.62742	0.442043222
4850.69871	0.440313112
4848.77001	0.44140625
4846.8413	0.442495127
4844.91259	0.441634241
4842.98388	0.442718447
4841.05518	0.441860465
4839.12647	0.44015444
4837.19776	0.441233141
4835.26906	0.440384615
4833.34035	0.441458733
4831.41164	0.442528736
4829.48293	0.443594646
4827.55423	0.441904762
4825.62552	0.441064639
4823.69681	0.442125237
4821.76811	0.441287879
4819.8394	0.442344045
4817.91069	0.441509434
4815.98198	0.442561205
4814.05328	0.440900563
4812.12457	0.441947566
4810.19586	0.442990654
4808.26715	0.441340782
4806.33845	0.442379182
4804.40974	0.441558442
4802.48103	0.442592593
4800.55233	0.443622921
4798.62362	0.442804428
4796.69491	0.443014706
4794.7662	0.442201835
4792.8375	0.441391941
4790.90879	0.442413163
4788.98008	0.443430657
4787.05137	0.441818182
4785.12267	0.442831216
4783.19396	0.442028986
4781.26525	0.443037975
4779.33655	0.443243243
4777.40784	0.442446043
4775.47913	0.441651706
4773.55042	0.441860465
4771.62172	0.442857143
4769.69301	0.442067736
4767.7643	0.443060498
4765.8356	0.443262411
4763.90689	0.442477876
4761.97818	0.443462898
4760.04947	0.442680776
4758.12077	0.44288225
4756.19206	0.442105263
4754.26335	0.443082312
4752.33464	0.443280977
4750.40594	0.444250871
4748.47723	0.443478261
4746.54852	0.443674177
4744.61982	0.442906574
4742.69111	0.442141623
4740.7624	0.443103448
4738.83369	0.443298969
4736.90499	0.441780822
4734.97628	0.442735043
4733.04757	0.443686007
4731.11886	0.442930153
4729.19016	0.443123939
4727.26145	0.444067797
4725.33274	0.443316413
4723.40404	0.442567568
4721.47533	0.443507589
4719.54662	0.443697479
4717.61791	0.444630872
4715.68921	0.443886097
4713.7605	0.444816054
4711.83179	0.443333333
4709.90308	0.444259567
4707.97438	0.444444444
4706.04567	0.443708609
4704.11696	0.443894389
4702.18826	0.443163097
4700.25955	0.444078947
4698.33084	0.443349754
4696.40213	0.443535188
4694.47343	0.443719413
4692.54472	0.444625407
4690.61601	0.445528455
4688.68731	0.444084279
4686.7586	0.443365696
4684.82989	0.444264943
4682.90118	0.444444444
4680.97248	0.443729904
4679.04377	0.443910256
4677.11506	0.4448
4675.18635	0.444089457
4673.25765	0.444267516
4671.32894	0.443561208
4669.40023	0.443740095
4667.47153	0.444620253
4665.54282	0.44549763
4663.61411	0.44637224
4661.6854	0.444968553
4659.7567	0.445141066
4657.82799	0.444444444
4655.89928	0.4453125
4653.97057	0.444617785
4652.04187	0.444790047
4650.11316	0.44496124
4648.18445	0.445820433
4646.25575	0.445131376
4644.32704	0.445300462
4642.39833	0.444615385
4640.46962	0.444785276
4638.54092	0.445635528
4636.61221	0.445801527
4634.6835	0.445121951
4632.7548	0.445966514
4630.82609	0.446130501
4628.89738	0.446969697
4626.96867	0.446293495
4625.03997	0.446455505
4623.11126	0.447289157
4621.18255	0.445945946
4619.25384	0.446107784
4617.32514	0.445440957
4615.39643	0.445603577
4613.46772	0.446428571
4611.53902	0.445103858
4609.61031	0.445925926
4607.6816	0.446085672
4605.75289	0.446244477
4603.82419	0.445588235
4601.89548	0.446402349
4599.96677	0.446559297
4598.03806	0.447368421
4596.10936	0.446715328
4594.18065	0.446870451
4592.25194	0.447674419
4590.32324	0.446376812
4588.39453	0.446531792
4586.46582	0.447330447
4584.53711	0.446043165
4582.60841	0.44683908
4580.6797	0.446991404
4578.75099	0.446351931
4576.82229	0.447142857
4574.89358	0.447293447
4572.96487	0.447443182
4571.03616	0.44822695
4569.10746	0.446958982
4567.17875	0.447740113
4565.25004	0.446478873
4563.32133	0.447257384
4561.39263	0.44740533
4559.46392	0.446153846
4557.53521	0.446927374
4555.60651	0.447075209
4553.6778	0.447844228
4551.74909	0.448611111
4549.82038	0.448753463
4547.89168	0.447513812
4545.96297	0.448275862
4544.03426	0.448418157
4542.10555	0.449175824
4540.17685	0.447945205
4538.24814	0.448087432
4536.31943	0.448840382
4534.39073	0.448979592
4532.46202	0.448369565
4530.53331	0.448509485
4528.6046	0.448648649
4526.6759	0.449392713
4524.74719	0.448183042
4522.81848	0.448924731
4520.88978	0.449061662
4518.96107	0.449197861
4517.03236	0.448598131
4515.10365	0.449333333
4513.17495	0.449468085
4511.24624	0.450199203
4509.31753	0.450331126
4507.38882	0.450462351
4505.46012	0.449275362
4503.53141	0.449408673
4501.6027	0.448818898
4499.674	0.44895288
4497.74529	0.449673203
4495.81658	0.449804433
4493.88787	0.450520833
4491.95917	0.449350649
4490.03046	0.449481865
4488.10175	0.449612403
4486.17304	0.450322581
4484.24434	0.45045045
4482.31563	0.451156812
4480.38692	0.451282051
4478.45822	0.450704225
4476.52951	0.45083014
4474.6008	0.449681529
4472.67209	0.449809403
4470.74339	0.450507614
4468.81468	0.450632911
4466.88597	0.450757576
4464.95727	0.451450189
4463.02856	0.451572327
4461.09985	0.451693852
4459.17114	0.450563204
4457.24244	0.45125
4455.31373	0.451371571
4453.38502	0.451492537
4451.45631	0.450931677
4449.52761	0.451053284
4447.5989	0.451174289
4445.67019	0.451851852
4443.74149	0.450738916
4441.81278	0.450859951
4439.88407	0.451533742
4437.95536	0.451652387
4436.02666	0.451770452
4434.09795	0.451219512
4432.16924	0.4513382
4430.24053	0.451456311
4428.31183	0.45157385
4426.38312	0.452237001
4424.45441	0.452352232
4422.52571	0.452466907
4420.597	0.452581032
4418.66829	0.452694611
4416.73958	0.45215311
4414.81088	0.452267303
4412.88217	0.452380952
4410.95346	0.452494062
4409.02476	0.451957295
4407.09605	0.452071006
4405.16734	0.452184179
4403.23863	0.45229682
4401.30993	0.452408931
4399.38122	0.452520516
4397.45251	0.451461988
4395.5238	0.452102804
4393.5951	0.452214452
4391.66639	0.452852154
4389.73768	0.452961672
4387.80898	0.453070684
4385.88027	0.453703704
4383.95156	0.453810624
4382.02285	0.453917051
4380.09415	0.452873563
4378.16544	0.452981651
4376.23673	0.453089245
4374.30802	0.453196347
4372.37932	0.45381984
4370.45061	0.453924915
4368.5219	0.454029512
4366.5932	0.454133635
4364.66449	0.454237288
4362.73578	0.454340474
4360.80707	0.454443195
4358.87837	0.45342312
4356.94966	0.453527436
4355.02095	0.453631285
4353.09225	0.454241071
4351.16354	0.454342984
4349.23483	0.454444444
4347.30612	0.454545455
4345.37742	0.454646018
4343.44871	0.454746137
4341.52	0.454845815
4339.59129	0.455445545
4337.66259	0.455543359
4335.73388	0.455640745
4333.80517	0.455737705
4331.87647	0.45474373
4329.94776	0.45484222
4328.01905	0.455434783
4326.09034	0.455531453
4324.16164	0.455627706
4322.23293	0.455231931
4320.30422	0.455818966
4318.37551	0.455913978
4316.44681	0.456008584
4314.5181	0.456102784
4312.58939	0.456196581
4310.66069	0.456289979
4308.73198	0.456382979
4306.80327	0.45696068
4304.87456	0.457051962
4302.94586	0.457142857
4301.01715	0.457233369
4299.08844	0.457323498
4297.15974	0.456361725
4295.23103	0.456453305
4293.30232	0.456544503
4291.37361	0.456635319
4289.44491	0.456725756
4287.5162	0.456815817
4285.58749	0.456905504
4283.65878	0.456994819
4281.73008	0.457083764
4279.80137	0.457172343
4277.87266	0.457260556
4275.94396	0.457348407
4274.01525	0.458461538
4272.08654	0.458546571
4270.15783	0.457609806
4268.22913	0.457696228
4266.30042	0.457782299
4264.37171	0.458333333
4262.443	0.45841785
4260.5143	0.458502024
4258.58559	0.457575758
4256.65688	0.458669355
4254.72818	0.458752515
4252.79947	0.458835341
4250.87076	0.458917836
4248.94205	0.458541459
4247.01335	0.458624128
4245.08464	0.458706468
4243.15593	0.458788481
4241.22723	0.458870168
4239.29852	0.458951533
4237.36981	0.460019743
4235.4411	0.460098522
4233.5124	0.459193707
4231.58369	0.459273798
4229.65498	0.459353575
4227.72627	0.460410557
4225.79757	0.460487805
4223.86886	0.460564752
4221.94015	0.460641399
4220.01145	0.46071775
4218.08274	0.460793804
4216.15403	0.460869565
4214.22532	0.460945034
4212.29662	0.460576923
4210.36791	0.460652591
4208.4392	0.460727969
4206.51049	0.460803059
4204.58179	0.460877863
4202.65308	0.460952381
4200.72437	0.461026616
4198.79567	0.461100569
4196.86696	0.461174242
4194.93825	0.460812087
4193.00954	0.460885957
4191.08084	0.460959548
4189.15213	0.461971831
4187.22342	0.462043112
4185.29472	0.462114125
4183.36601	0.462184874
4181.4373	0.462255359
4179.50859	0.462325581
4177.57989	0.461966605
4175.65118	0.462037037
4173.72247	0.462107209
4171.79376	0.462177122
4169.86506	0.461821527
4167.93635	0.461891644
4166.00764	0.462385321
4164.07894	0.462454212
4162.15023	0.462100457
4160.22152	0.46308113
4158.29281	0.463148317
4156.36411	0.463215259
4154.4354	0.463281958
4152.50669	0.462929476
4150.57798	0.46299639
4148.64928	0.463063063
4146.72057	0.463129496
4144.79186	0.462780269
4142.86316	0.463742167
4140.93445	0.463806971
4139.00574	0.463871543
4137.07703	0.463935886
4135.14833	0.464
4133.21962	0.463652482
4131.29091	0.46460177
4129.36221	0.464664311
4127.4335	0.464317181
4125.50479	0.464379947
4123.57608	0.464442493
4121.64738	0.46450482
4119.71867	0.464566929
4117.78996	0.464628821
4115.86125	0.464285714
4113.93255	0.465217391
4112.00384	0.465277778
4110.07513	0.465337955
4108.14643	0.465397924
4106.21772	0.465056083
4104.28901	0.465576592
4102.3603	0.465635739
4100.4316	0.465694683
4098.50289	0.465753425
4096.57418	0.465811966
4094.64547	0.465870307
4092.71677	0.46592845
4090.78806	0.465590484
4088.85935	0.466497031
4086.93065	0.467005076
4085.00194	0.467060811
4083.07323	0.467116358
4081.14452	0.466778806
4079.21582	0.466834593
4077.28711	0.466499162
4075.3584	0.466555184
4073.4297	0.466611018
4071.50099	0.466278102
4069.57228	0.46716542
4067.64357	0.467219917
4065.71487	0.468102734
4063.78616	0.4681555
4061.85745	0.467382329
4059.92874	0.467051071
4058.00004	0.467927632
4056.07133	0.46759639
4054.14262	0.468468468
4052.21392	0.468137255
4050.28521	0.468189233
4048.3565	0.468241042
4046.42779	0.467912266
4044.49909	0.468775345
4042.57038	0.468446602
4040.64167	0.468497577
4038.71296	0.469354839
4036.78426	0.469026549
4034.85555	0.469076305
4032.92684	0.469125902
4030.99814	0.4688
4029.06943	0.46884984
4027.14072	0.46969697
4025.21201	0.469371519
4023.28331	0.469420175
4021.3546	0.470261697
4019.42589	0.469936709
4017.49719	0.469984202
4015.56848	0.469661151
4013.63977	0.469339623
4011.71106	0.470172684
4009.78236	0.469851214
4007.85365	0.469898358
4005.92494	0.470358814
4003.99623	0.470404984
4002.06753	0.470451011
4000.13882	0.47090768
3998.21011	0.47095275
3996.28141	0.47099768
3994.3527	0.471814672
3992.42399	0.471494607
3990.49528	0.471176018
3988.56658	0.471987721
3986.63787	0.471669219
3984.70916	0.471712538
3982.78045	0.471395881
3980.85175	0.472201066
3978.92304	0.472243346
3976.99433	0.471927162
3975.06563	0.471969697
3973.13692	0.472411187
3971.20821	0.472096531
3969.2795	0.472138554
3967.3508	0.47257701
3965.42209	0.472618155
3963.49338	0.47340824
3961.56468	0.47309417
3959.63597	0.472781506
3957.70726	0.47282204
3955.77855	0.472511144
3953.84985	0.473293769
3951.92114	0.473333333
3949.99243	0.473022912
3948.06372	0.473800738
3946.13502	0.473490427
3944.20631	0.473529412
3942.2776	0.473954512
3940.3489	0.474377745
3938.42019	0.474068663
3936.49148	0.474106492
3934.56277	0.47414421
3932.63407	0.474181818
3930.70536	0.473875181
3928.77665	0.47429399
3926.84794	0.473988439
3924.91924	0.474405191
3922.99053	0.474442045
3921.06182	0.474478792
3919.13312	0.474515434
3917.20441	0.475268817
3915.2757	0.475339528
3913.34699	0.47574893
3911.41829	0.476156584
3909.48958	0.475852273
3907.56087	0.475514549
3905.63217	0.475177305
3903.70346	0.475549256
3901.77475	0.475247525
3899.84604	0.475652788
3897.91734	0.476090014
3895.98863	0.476491228
3894.05992	0.476524177
3892.13121	0.476557033
3890.20251	0.476256983
3888.2738	0.476290098
3886.34509	0.47632312
3884.41639	0.476719944
3882.48768	0.477115118
3880.55897	0.476816609
3878.63026	0.476880607
3876.70156	0.477272727
3874.77285	0.477303989
3872.84414	0.476975945
3870.91543	0.477335165
3868.98673	0.47739726
3867.05802	0.477785373
3865.12931	0.477489768
3863.20061	0.477876106
3861.2719	0.477936185
3859.34319	0.478319783
3857.41448	0.478319783
3855.48578	0.477257298
3853.55707	0.476933514
3851.62836	0.478055368
3849.69966	0.478844862
3847.77095	0.479571333
3845.84224	0.479278075
3843.91353	0.478638184
3841.98483	0.478985991
3840.05612	0.478666667
3838.12741	0.479360852
3836.1987	0.479415671
3834.27	0.479470199
3832.34129	0.479524439
3830.41258	0.479894529
3828.48388	0.479947403
3826.55517	0.479973736
3824.62646	0.48
3822.69775	0.479685452
3820.76905	0.479712042
3818.84034	0.48007838
3816.91163	0.480443286
3814.98292	0.481144343
3813.05422	0.481217617
3811.12551	0.480930834
3809.1968	0.48126615
3807.2681	0.481290323
3805.33939	0.481314433
3803.41068	0.481338481
3801.48197	0.481362468
3799.55327	0.482051282
3797.62456	0.481789137
3795.69585	0.481835564
3793.76715	0.481881755
3791.83844	0.48286802
3789.90973	0.482583914
3787.98102	0.482932996
3786.05232	0.482954545
3784.12361	0.482671708
3782.1949	0.483322845
3780.26619	0.483040201
3778.33749	0.48338558
3776.40878	0.483427142
3774.48007	0.483770287
3772.55137	0.483167082
3770.62266	0.483188045
3768.69395	0.483208955
3766.76524	0.48325062
3764.83654	0.484210526
3762.90783	0.483930779
3760.97912	0.483950617
3759.05041	0.484288355
3757.12171	0.48400984
3755.193	0.484326982
3753.26429	0.48400984
3751.33559	0.483712354
3749.40688	0.48404908
3747.47817	0.484068627
3745.54946	0.483772198
3743.62076	0.483831605
3741.69205	0.484517304
3739.76334	0.485160509
3737.83464	0.484554815
3735.90593	0.484261501
3733.97722	0.484903382
3732.04851	0.484957882
3730.11981	0.485302939
3728.1911	0.485628743
3726.26239	0.486244019
3724.33368	0.486567164
3722.40498	0.486599166
3720.47627	0.486325803
3718.54756	0.486951364
3716.61886	0.486678508
3714.69015	0.486982249
3712.76144	0.486694264
3710.83273	0.486422668
3708.90403	0.486756916
3706.97532	0.487089202
3705.04661	0.487404804
3703.1179	0.487419544
3701.1892	0.487733645
3699.26049	0.487762238
3697.33178	0.488074462
3695.40308	0.487804878
3693.47437	0.487521764
3691.54566	0.488102147
3689.61695	0.488399072
3687.68825	0.488721805
3685.75954	0.488760807
3683.83083	0.488786659
3681.90213	0.48879954
3679.97342	0.489092997
3678.04471	0.488518944
3676.116	0.488518944
3674.1873	0.488545246
3672.25859	0.488850772
3670.32988	0.489155251
3668.40117	0.489192264
3666.47247	0.490073738
3664.54376	0.490662139
3662.61505	0.49039548
3660.68635	0.490406321
3658.75764	0.490129724
3656.82893	0.489853439
3654.90022	0.490151941
3652.97152	0.490438695
3651.04281	0.490151941
3649.1141	0.490438695
3647.18539	0.490745934
3645.25669	0.491061453
3643.32798	0.491081382
3641.39927	0.491374513
3639.47057	0.491666667
3637.54186	0.491675916
3635.61315	0.491685144
3633.68444	0.491966759
3631.75574	0.491685144
3629.82703	0.49113082
3627.89832	0.49170354
3625.96961	0.492282249
3624.04091	0.49229923
3622.1122	0.49229923
3620.18349	0.49229923
3618.25479	0.492037342
3616.32608	0.492594624
3614.39737	0.492332968
3612.46866	0.492610837
3610.53996	0.492618917
3608.61125	0.492358079
3606.68254	0.49291939
3604.75384	0.492934783
3602.82513	0.49321758
3600.89642	0.492950108
3598.96771	0.493499458
3597.03901	0.493239589
3595.1103	0.493787142
3593.18159	0.493527508
3591.25288	0.493534483
3589.32418	0.493534483
3587.39547	0.493541442
3585.46676	0.494092374
3583.53806	0.494640943
3581.60935	0.494917068
3579.68064	0.49465812
3577.75193	0.494663821
3575.82323	0.495202559
3573.89452	0.494944119
3571.96581	0.495212766
3570.0371	0.495212766
3568.1084	0.494949495
3566.17969	0.49522293
3564.25098	0.495762712
3562.32228	0.496033845
3560.39357	0.495776135
3558.46486	0.496308017
3556.53615	0.496838778
3554.60745	0.496315789
3552.67874	0.496319664
3550.75003	0.496323529
3548.82133	0.496327387
3546.89262	0.496855346
3544.96391	0.496598639
3543.0352	0.497124935
3541.1065	0.496868476
3539.17779	0.497393118
3537.24908	0.497395833
3535.32037	0.497918835
3533.39167	0.497662338
3531.46296	0.497664764
3529.53425	0.497667185
3527.60555	0.497927461
3525.67684	0.497929607
3523.74813	0.497931748
3521.81942	0.498450413
3519.89072	0.498710676
3517.96201	0.498455201
3516.0333	0.49845679
3514.10459	0.498458376
3512.17589	0.498973306
3510.24718	0.498718606
3508.31847	0.499231951
3506.38977	0.498977505
3504.46106	0.49897855
3502.53235	0.499489796
3500.60364	0.499235863
3498.67494	0.499745547
3496.74623	0.49949187
3494.81752	0.5
3492.88882	0.5
3490.96011	0.500506586
3489.0314	0.500506073
3487.10269	0.500757959
3485.17399	0.500757193
3483.24528	0.501008065
3481.31657	0.501007049
3479.38786	0.501256913
3477.45916	0.501004016
3475.53045	0.501504514
3473.60174	0.501752629
3471.67304	0.5015
3469.74433	0.501998002
3467.81562	0.502244389
3465.88691	0.501992032
3463.95821	0.502237693
3462.0295	0.501986097
3460.10079	0.502480159
3458.17208	0.502724121
3456.24338	0.502472799
3454.31467	0.502964427
3452.38596	0.50271337
3450.45726	0.503203549
3448.52855	0.502952756
3446.59984	0.503194103
3444.67113	0.50343474
3442.74243	0.503674669
3440.81372	0.503424658
3438.88501	0.503663898
3436.95631	0.503902439
3435.0276	0.504140283
3433.09889	0.504377432
3431.17018	0.504368932
3429.24148	0.504360465
3427.31277	0.504596033
3425.38406	0.504587156
3423.45535	0.504821601
3421.52665	0.505055368
3419.59794	0.505288462
3417.66923	0.505278311
3415.74053	0.505510302
3413.81182	0.505499761
3411.88311	0.505730659
3409.9544	0.505725191
3408.0257	0.505955217
3406.09699	0.505708849
3404.16828	0.505938242
3402.23957	0.506166983
3400.31087	0.506628788
3398.38216	0.506616257
3396.45345	0.507075472
3394.52475	0.507062147
3392.59604	0.507048872
3390.66733	0.507035647
3388.73862	0.507022472
3386.80992	0.507713885
3384.88121	0.507699487
3382.9525	0.507921715
3381.0238	0.507906977
3379.09509	0.508128193
3377.16638	0.50811312
3375.23767	0.508333333
3373.30897	0.50831793
3371.38026	0.508537148
3369.45155	0.508521419
3367.52284	0.50873965
3365.59414	0.509416628
3363.66543	0.509399358
3361.73672	0.509382151
3359.80802	0.509597806
3357.87931	0.509124088
3355.9506	0.509794989
3354.02189	0.509777171
3352.09319	0.509990917
3350.16448	0.509972801
3348.23577	0.510185604
3346.30706	0.51039783
3344.37836	0.510379061
3342.44965	0.510590356
3340.52094	0.5105713
3338.59224	0.510552313
3336.66353	0.510762332
3334.73482	0.510743062
3332.80611	0.511399195
3330.87741	0.511378849
3328.9487	0.511358575
3327.01999	0.511565836
3325.09129	0.511545293
3323.16258	0.511751663
3321.23387	0.512173528
3319.30516	0.512152011
3317.37646	0.512356575
3315.44775	0.512334802
3313.51904	0.512313105
3311.59033	0.512730465
3309.66163	0.512708151
3307.73292	0.512910284
3305.80421	0.513324596
3303.87551	0.513301352
3301.9468	0.513713539
3300.01809	0.513913043
3298.08938	0.513888889
3296.16068	0.513864818
3294.23197	0.514273356
3292.30326	0.514248705
3290.37455	0.514224138
3288.44585	0.514629948
3286.51714	0.514825956
3284.58843	0.51457976
3282.65973	0.514982877
3280.73102	0.514957265
3278.80231	0.514931741
3276.8736	0.515332198
3274.9449	0.515525308
3273.01619	0.515498938
3271.08748	0.515677966
3269.15878	0.515651438
3267.23007	0.515625
3265.30136	0.516020236
3263.37265	0.515993266
3261.44395	0.516386555
3259.51524	0.516575745
3257.58653	0.516547968
3255.65782	0.516520284
3253.72912	0.51691023
3251.80041	0.516882034
3249.8717	0.516853933
3247.943	0.517241379
3246.01429	0.517212775
3244.08558	0.517184265
3242.15687	0.517569243
3240.22817	0.517540239
3238.29946	0.517923362
3236.37075	0.518106996
3234.44204	0.518077239
3232.51334	0.518245182
3230.58463	0.518215309
3228.65592	0.518594197
3226.72722	0.518563851
3224.79851	0.518940937
3222.8698	0.518910126
3220.94109	0.518879415
3219.01239	0.519254155
3217.08368	0.519222987
3215.15497	0.51959596
3213.22627	0.51956434
3211.29756	0.519935562
3209.36885	0.519694534
3207.44014	0.520064205
3205.51144	0.520032051
3203.58273	0.5204
3201.65402	0.520766773
3199.72531	0.520733652
3197.79661	0.521098726
3195.8679	0.521065183
3193.93919	0.521221737
3192.01049	0.521584158
3190.08178	0.52155002
3188.15307	0.521310182
3186.22436	0.521276596
3184.29566	0.521636507
3182.36695	0.521602514
3180.43824	0.521568627
3178.50953	0.52192639
3176.58083	0.521688159
3174.65212	0.522044479
3172.72341	0.522196262
3170.79471	0.522161742
3168.866	0.522515528
3166.93729	0.522868217
3165.00858	0.522832817
3163.07988	0.522981846
3161.15117	0.523332048
3159.22246	0.523296111
3157.29376	0.523644752
3155.36505	0.523992322
3153.43634	0.523754789
3151.50763	0.523718439
3149.57893	0.524064171
3147.65022	0.524408848
3145.72151	0.524552722
3143.7928	0.524515393
3141.8641	0.524658574
3139.93539	0.524801212
3138.00668	0.524763705
3136.07798	0.525103813
3134.14927	0.524868124
3132.22056	0.525206922
3130.29185	0.525544703
3128.36315	0.525506377
3126.43444	0.525842697
3124.50573	0.525607477
3122.57702	0.525942516
3120.64832	0.525707899
3118.71961	0.52641369
3116.7909	0.526745914
3114.8622	0.52688172
3112.93349	0.52684191
3111.00478	0.526977088
3109.07607	0.526937269
3107.14737	0.527071823
3105.21866	0.527205882
3103.28995	0.527165932
3101.36125	0.527492669
3099.43254	0.527818448
3097.50383	0.527950311
3095.57512	0.528081692
3093.64642	0.528404953
3091.71771	0.528171574
3089.789	0.528493648
3087.86029	0.528623188
3085.93159	0.52894356
3084.00288	0.528710726
3082.07417	0.529029931
3080.14547	0.528797696
3078.21676	0.52892562
3076.28805	0.529242914
3074.35934	0.529559298
3072.43064	0.529685265
3070.50193	0.53
3068.57322	0.529957204
3066.64451	0.53008188
3064.71581	0.530039104
3062.7871	0.530163236
3060.85839	0.530286929
3058.92969	0.530244075
3057.00098	0.530554574
3055.07227	0.53067701
3053.14356	0.530985915
3051.21486	0.531107206
3049.28615	0.531414531
3047.35744	0.531370487
3045.42874	0.531490553
3043.50003	0.531795947
3041.57132	0.531566097
3039.64261	0.531870428
3037.71391	0.532173913
3035.7852	0.532129212
3033.85649	0.532431495
3031.92778	0.532202216
3029.99908	0.532503458
3028.07037	0.532803867
3026.14166	0.532919683
3024.21296	0.532874355
3022.28425	0.533172912
3020.35554	0.53312736
3018.42683	0.533424751
3016.49813	0.533721328
3014.56942	0.533675214
3012.64071	0.533811475
3010.712	0.533765348
3008.7833	0.534059946
3006.85459	0.534195305
3004.92588	0.534488617
3002.99718	0.534441805
3001.06847	0.534576271
2999.13976	0.534710464
2997.21105	0.534506089
2995.28235	0.534820825
2993.35364	0.535135135
2991.42493	0.535449021
2989.49623	0.535425101
2987.56752	0.535919056
2985.63881	0.535738368
2983.7101	0.535738368
2981.7814	0.536256324
2979.85269	0.536437247
2977.92398	0.53646185
2975.99527	0.536849222
2974.06657	0.537080935
2972.13786	0.53715643
2970.20915	0.537597822
2968.28045	0.537517053
2966.35174	0.537410318
2964.42303	0.537777778
2962.49432	0.538093611
2960.56562	0.538173142
2958.63691	0.5382263
2956.7082	0.538253216
2954.77949	0.538617201
2952.85079	0.538642473
2950.92208	0.538513061
2948.99337	0.538744155
2947.06467	0.538846282
2945.13596	0.538794539
2943.20725	0.539101498
2941.27854	0.539101498
2939.34984	0.539613848
2937.42113	0.53979354
2935.49242	0.53979354
2933.56372	0.53979354
2931.63501	0.539767055
2929.7063	0.539893617
2927.77759	0.540172643
2925.84889	0.540603248
2923.92018	0.540674603
2921.99147	0.540567282
2920.06276	0.540762656
2918.13406	0.540629096
2916.20535	0.540646425
2914.27664	0.54083957
2912.34794	0.540882544
2910.41923	0.541100324
2908.49052	0.541316979
2906.56181	0.541706924
2904.63311	0.541773779
2902.7044	0.541840333
2900.77569	0.54190659
2898.84698	0.54197255
2896.91828	0.542038217
2894.98957	0.542103591
2893.06086	0.542168675
2891.13216	0.542405063
2889.20345	0.542496051
2887.27474	0.542586751
2885.34603	0.542848141
2883.41733	0.543108874
2881.48862	0.543396226
2879.55991	0.54336895
2877.63121	0.543655779
2875.7025	0.543771572
2873.77379	0.543716703
2871.84508	0.543974961
2869.91638	0.5440625
2867.98767	0.544149766
2866.05896	0.544548287
2864.13025	0.544803983
2862.20155	0.544748291
2860.27284	0.544692737
2858.34413	0.544806202
2856.41543	0.544891641
2854.48672	0.544976816
2852.55801	0.54503393
2850.6293	0.545538462
2848.7006	0.545398773
2846.77189	0.545565749
2844.84318	0.545731707
2842.91447	0.545758589
2840.98577	0.545950864
2839.05706	0.545839637
2837.12835	0.546195652
2835.19965	0.546413502
2833.27094	0.546630566
2831.34223	0.546546547
2829.41352	0.546626687
2827.48482	0.546842263
2825.55611	0.546921698
2823.6274	0.547000895
2821.6987	0.547079857
2819.76999	0.547158584
2817.84128	0.547399703
2815.91257	0.547315337
2813.98387	0.547689573
2812.05516	0.547928994
2810.12645	0.548005908
2808.19774	0.54824432
2806.26904	0.548482169
2804.34033	0.548557975
2802.41162	0.548633559
2800.48292	0.54870892
2798.55421	0.548651817
2796.6255	0.548887588
2794.69679	0.548962292
2792.76809	0.549328663
2790.83938	0.549402507
2788.91067	0.549636099
2786.98196	0.549418605
2785.05326	0.549492017
2783.12455	0.549855072
2781.19584	0.550086856
2779.26714	0.550159005
2777.33843	0.550230947
2775.40972	0.55017301
2773.48101	0.550403226
2771.55231	0.550474547
2769.6236	0.550703821
2767.69489	0.550774527
2765.76619	0.551002865
2763.83748	0.551072961
2761.90877	0.551300372
2759.98006	0.551812732
2758.05136	0.551596351
2756.12265	0.551822323
2754.19394	0.552047782
2752.26523	0.552115876
2750.33653	0.552340426
2748.40782	0.552564466
2746.47911	0.552348613
2744.55041	0.552415937
2742.6217	0.552639006
2740.69299	0.552861573
2738.76428	0.552802028
2736.83558	0.552868391
2734.90687	0.553089888
2732.97816	0.553310887
2731.04945	0.553656486
2729.12075	0.553596418
2727.19204	0.553661263
2725.26333	0.553725928
2723.33463	0.553944801
2721.40592	0.554008909
2719.47721	0.554226919
2717.5485	0.554444444
2715.6198	0.554507628
2713.69109	0.554570637
2711.76238	0.55478694
2709.83368	0.554573086
2707.90497	0.554788849
2705.97626	0.555004136
2704.04755	0.555218948
2702.11885	0.555280528
2700.19014	0.555341939
2698.26143	0.555555556
2696.33272	0.555616438
2694.40402	0.555829228
2692.47531	0.555768179
2690.5466	0.555980339
2688.6179	0.556313062
2686.68919	0.556524108
2684.76048	0.556734694
2682.83177	0.556793478
2680.90307	0.556731813
2678.97436	0.556790458
2677.04565	0.556999729
2675.11694	0.557208547
2673.18824	0.557266343
2671.25953	0.557474366
2669.33082	0.557681941
2667.40212	0.557738896
2665.47341	0.557945684
2663.5447	0.558002148
2661.61599	0.558208155
2659.68729	0.558264131
2657.75858	0.55846936
2655.82987	0.558524853
2653.90117	0.558729311
2651.97246	0.558784324
2650.04375	0.558839191
2648.11504	0.559042553
2646.18634	0.559245484
2644.25763	0.55918259
2642.32892	0.559236682
2640.40021	0.559703468
2638.47151	0.559756742
2636.5428	0.559957739
2634.61409	0.559746769
2632.68539	0.559947299
2630.75668	0.560147407
2628.82797	0.56019979
2626.89926	0.560136555
2624.97056	0.560188828
2623.04185	0.560387739
2621.11314	0.560586234
2619.18443	0.561045752
2617.25573	0.561096606
2615.32702	0.561147327
2613.39831	0.561197917
2611.46961	0.561394381
2609.5409	0.561444531
2607.61219	0.561380742
2605.68348	0.561430793
2603.75478	0.5616261
2601.82607	0.561821004
2599.89736	0.562273902
2597.96865	0.562322581
2596.03995	0.562516112
2594.11124	0.562709245
2592.18253	0.562757202
2590.25383	0.562805035
2588.32512	0.562852745
2586.39641	0.563044593
2584.4677	0.563091886
2582.539	0.563283048
2580.61029	0.563473819
2578.68158	0.563520408
2576.75288	0.563566879
2574.82417	0.563756681
2572.89546	0.563802745
2570.96675	0.563991874
2569.03805	0.564037535
2567.10934	0.564479351
2565.18063	0.564524291
2563.25192	0.564569118
2561.32322	0.564613831
2559.39451	0.564800807
2557.4658	0.564987406
2555.5371	0.565173629
2553.60839	0.565217391
2551.67968	0.565402963
2549.75097	0.565446339
2547.82227	0.565631263
2545.89356	0.565674256
2543.96485	0.565858535
2542.03614	0.565901148
2540.10744	0.566192969
2538.17873	0.56637609
2536.25002	0.56641791
2534.32132	0.566600398
2532.39261	0.566641847
2530.4639	0.566683193
2528.53519	0.566864785
2526.60649	0.567046017
2524.67778	0.567086731
2522.74907	0.567267341
2520.82037	0.567307692
2518.89166	0.567594189
2516.96295	0.567527675
2515.03424	0.567567568
2513.10554	0.567607362
2511.17683	0.56803138
2509.24812	0.56820965
2507.31941	0.568248532
2505.39071	0.56828732
2503.462	0.568326013
2501.53329	0.568503169
2499.60459	0.568541514
2497.67588	0.568579767
2495.74717	0.568756074
2493.81846	0.568932039
2491.88976	0.569212121
2489.96105	0.569387261
2488.03234	0.569424286
2486.10363	0.569461223
2484.17493	0.569876901
2482.24622	0.569913211
2480.31751	0.569949434
2478.38881	0.569882127
2476.4601	0.570158578
2474.53139	0.570331253
2472.60268	0.570366819
2470.67398	0.570641762
2468.74527	0.570813397
2466.81656	0.570848268
2464.88786	0.570883055
2462.95915	0.571292322
2461.03044	0.571326506
2459.10173	0.571360609
2457.17303	0.571394631
2455.24432	0.571428571
2453.31561	0.571597914
2451.3869	0.57200379
2449.4582	0.572036906
2447.52949	0.572205152
2445.60078	0.572474032
2443.67208	0.572371523
2441.74337	0.57253886
2439.81466	0.572335921
2437.88595	0.572737955
2435.95725	0.572769953
2434.02854	0.573036342
2432.09983	0.573202155
2430.17112	0.573233505
2428.24242	0.573264781
2426.31371	0.573295985
2424.385	0.57356027
2422.4563	0.573591057
2420.52759	0.573755235
2418.59888	0.574018127
2416.67017	0.574048282
2414.74147	0.574078368
2412.81276	0.574108384
2410.88405	0.57413833
2408.95535	0.574532008
2407.02664	0.574561404
2405.09793	0.574590731
2403.16922	0.574850299
2401.24052	0.574879227
2399.31181	0.574908088
2397.3831	0.575298439
2395.45439	0.57532676
2393.52569	0.575355016
2391.59698	0.575743707
2389.66827	0.576
2387.73957	0.575895914
2385.81086	0.575923393
2383.88215	0.575950808
2381.95344	0.576109215
2380.02474	0.576363636
2378.09603	0.576521344
2376.16732	0.57654797
2374.23861	0.576801087
2372.30991	0.5769579
2370.3812	0.576983948
2368.45249	0.577009937
2366.52379	0.577166065
2364.59508	0.577417174
2362.66637	0.577442593
2360.73766	0.577692827
2358.80896	0.57771788
2356.88025	0.577837595
2354.95154	0.577862424
2353.02284	0.577981651
2351.09413	0.578229772
2349.16542	0.578477339
2347.23671	0.578630381
2345.30801	0.578654189
2343.3793	0.578806768
2341.45059	0.578830331
2339.52188	0.578982448
2337.59318	0.57900577
2335.66447	0.57925072
2333.73576	0.579495128
2331.80706	0.579517806
2329.87835	0.579633311
2327.94964	0.579655781
2326.02093	0.579898611
2324.09223	0.57992074
2322.16352	0.58003518
2320.23481	0.580057105
2318.3061	0.580298376
2316.3774	0.580539119
2314.44869	0.58056042
2312.51998	0.580581675
2310.59128	0.580694475
2308.66257	0.580933682
2306.73386	0.581299041
2304.80515	0.581319399
2302.87645	0.581339713
2300.94774	0.581359983
2299.01903	0.581597222
2297.09033	0.581617169
2295.16162	0.581637072
2293.23291	0.581782778
2291.3042	0.582018587
2289.3755	0.58216368
2287.44679	0.582182916
2285.51808	0.582417582
2283.58937	0.582436505
2281.66067	0.582455386
2279.73196	0.582474227
2277.80325	0.582832618
2275.87455	0.582851018
2273.94584	0.582869379
2272.01713	0.582887701
2270.08842	0.583244283
2268.15972	0.583262169
2266.23101	0.583493282
2264.3023	0.583723903
2262.37359	0.584078331
2260.44489	0.584095258
2258.51618	0.58411215
2256.58747	0.584129005
2254.65877	0.584233948
2252.73006	0.584250635
2250.80135	0.584478748
2248.87264	0.584582893
2246.94394	0.584599156
2245.01523	0.584702908
2243.08652	0.584929489
2241.15782	0.585032584
2239.22911	0.585135419
2237.3004	0.585151007
2235.37169	0.585253456
2233.44299	0.585478134
2231.51428	0.585579937
2229.58557	0.585681486
2227.65686	0.585782781
2225.72816	0.586005831
2223.79945	0.586106489
2221.87074	0.586328693
2219.94204	0.58642872
2218.01333	0.586442786
2216.08462	0.586542443
2214.15591	0.58655636
2212.22721	0.58665565
2210.2985	0.586875774
2208.36979	0.587095444
2206.44108	0.586987853
2204.51238	0.587206911
2202.58367	0.587220053
2200.65496	0.587438424
2198.72626	0.587656346
2196.79755	0.58775343
2194.86884	0.587765957
2192.94013	0.587982833
2191.01143	0.5879951
2189.08272	0.588211299
2187.15401	0.588223309
2185.22531	0.588438836
2183.2966	0.58845059
2181.36789	0.588665448
2179.43918	0.588676948
2177.51048	0.588891141
2175.58177	0.58890239
2173.65306	0.589115922
2171.72435	0.58912692
2169.79565	0.589339794
2167.86694	0.589350545
2165.93823	0.589562764
2164.00953	0.589573269
2162.08082	0.589784838
2160.15211	0.589795098
2158.2234	0.59000602
2156.2947	0.590016038
2154.36599	0.590344551
2152.43728	0.590354213
2150.50857	0.590481904
2148.57987	0.590645613
2146.65116	0.590645613
2144.72245	0.590645613
2142.79375	0.590818363
2140.86504	0.591035857
2138.93633	0.591171207
2137.00762	0.591342335
2135.07892	0.591350922
2133.15021	0.591359493
2131.2215	0.591448931
2129.2928	0.591340451
2127.36409	0.591744025
2125.43538	0.591832709
2123.50667	0.591840757
2121.57797	0.591848789
2119.64926	0.591856806
2117.72055	0.592141454
2115.79184	0.592345437
2113.86314	0.592432856
2111.93443	0.592636114
2110.00572	0.592723005
2108.07702	0.592730115
2106.14831	0.592816709
2104.2196	0.593018721
2102.29089	0.593220339
2100.36219	0.593306091
2098.43348	0.593391642
2096.50477	0.593476995
2094.57606	0.593677269
2092.64736	0.593762108
2090.71865	0.593846749
2088.78994	0.593931194
2086.86124	0.594015444
2084.93253	0.594099499
2083.00382	0.594183359
2081.07511	0.594267026
2079.14641	0.594656929
2077.2177	0.594739873
2075.28899	0.594822627
2073.36029	0.594905191
2071.43158	0.59479625
2069.50287	0.595106098
2067.57416	0.595224451
2065.64546	0.595229008
2063.71675	0.595387841
2061.78804	0.595432921
2059.85933	0.59559103
2057.93063	0.595671982
2056.00192	0.595752749
2054.07321	0.595833333
2052.14451	0.59602649
2050.2158	0.596106596
2048.28709	0.596186521
2046.35838	0.596454837
2044.42968	0.596534187
2042.50097	0.59672563
2040.57226	0.596616541
2038.64355	0.596695456
2036.71485	0.596886138
2034.78614	0.596964587
2032.85743	0.597079199
2030.92873	0.59704286
2029.00002	0.59738073
2027.07131	0.597422006
2025.1426	0.597649692
2023.2139	0.597615499
2021.28519	0.597692594
2019.35648	0.597880647
2017.42778	0.597882615
2015.49907	0.598070143
2013.57036	0.598146432
2011.64165	0.598222551
2009.71295	0.598409175
2007.78424	0.598595454
2005.85553	0.598781388
2003.92682	0.598782512
2001.99812	0.598967932
2000.06941	0.59915301
1998.1407	0.59904359
1996.212	0.599228225
1994.28329	0.599228933
1992.35458	0.599339571
1990.42587	0.599340176
1988.49717	0.599523897
1986.56846	0.59941467
1984.63975	0.599597953
1982.71104	0.59959832
1980.78234	0.599781102
1978.85363	0.600072913
1976.92492	0.600072846
1974.99622	0.600254731
1973.06751	0.600545455
1971.1388	0.60065407
1969.21009	0.600653476
1967.28139	0.600761836
1965.35268	0.60094237
1963.42397	0.600978084
1961.49527	0.601196953
1959.56656	0.601125635
1957.63785	0.601341552
1955.70914	0.60155403
1953.78044	0.601586443
1951.85173	0.601656762
1949.92302	0.601943495
1947.99431	0.602013302
1946.06561	0.601903394
1944.1369	0.601901686
1942.20819	0.601899982
1940.27949	0.602219835
1938.35078	0.602360093
1936.42207	0.60253662
1934.49336	0.602534357
1932.56466	0.602710414
1930.63595	0.602707999
1928.70724	0.602883588
1926.77853	0.603166133
1924.84983	0.60316332
1922.92112	0.603090037
1920.99241	0.603194321
1919.06371	0.603298457
1917.135	0.60336581
1915.20629	0.603573324
1913.27758	0.603640219
1911.34888	0.603920184
1909.42017	0.603916725
1907.49146	0.604089547
1905.56276	0.604155661
1903.63405	0.604327938
1901.70534	0.604324134
1899.77663	0.604426489
1897.84793	0.604528699
1895.91922	0.604630767
1893.99051	0.604626709
1892.0618	0.604728546
1890.1331	0.604655233
1888.20439	0.604826019
1886.27568	0.605240175
1884.34698	0.605410122
1882.41827	0.605579773
1880.48956	0.605574913
1878.56085	0.605744125
1876.63215	0.605913043
1874.70344	0.605734144
1872.77473	0.605765891
1870.84602	0.605765891
1868.91732	0.605729167
1866.98861	0.605929265
1865.0599	0.606196988
1863.1312	0.606605568
1861.20249	0.606772633
1859.27378	0.606766788
1857.34507	0.606760952
1855.41637	0.606755127
1853.48766	0.607026003
1851.55895	0.607192017
1849.63025	0.607118294
1847.70154	0.607185835
1845.77283	0.607290234
1843.84412	0.607388316
1841.91542	0.60754717
1839.98671	0.607809556
1838.058	0.608041061
1836.12929	0.608034188
1834.20059	0.607856533
1832.27188	0.607923497
1830.34317	0.607886651
1828.41447	0.608154214
1826.48576	0.608214042
1824.55705	0.608273749
1822.62834	0.608569971
1820.69964	0.608629183
1818.77093	0.608725174
1816.84222	0.608821035
1814.91351	0.608850458
1812.98481	0.609152542
1811.0561	0.609012367
1809.12739	0.609277129
1807.19869	0.609372357
1805.26998	0.60940142
1803.34127	0.609570511
1801.41256	0.60940142
1799.48386	0.609702502
1797.55515	0.609797297
1795.62644	0.609966216
1793.69774	0.609937468
1791.76903	0.610106473
1789.84032	0.610332602
1787.91161	0.61059558
1785.98291	0.61059558
1784.0542	0.610764299
1782.12549	0.61082996
1780.19678	0.610895598
1778.26808	0.611026808
1776.33937	0.611129848
1774.41066	0.611139241
1772.48196	0.611214322
1770.55325	0.611176769
1768.62454	0.611504723
1766.69583	0.611729019
1764.76713	0.611925215
1762.83842	0.612131424
1760.90971	0.612169223
1758.981	0.612272421
1757.0523	0.61241356
1755.12359	0.612592843
1753.19488	0.612614136
1751.26618	0.612504236
1749.33747	0.612618725
1747.40876	0.612930596
1745.48005	0.613073005
1743.55135	0.613292538
1741.62264	0.613617021
1739.69393	0.613798978
1737.76523	0.613981245
1735.83652	0.613795458
1733.90781	0.613873227
1731.9791	0.613849565
1730.0504	0.614193329
1728.12169	0.614509004
1726.19298	0.614588634
1724.26427	0.61477215
1722.33557	0.614759648
1720.40686	0.614590386
1718.47815	0.614421124
1716.54945	0.614370245
1714.62074	0.614567527
1712.69203	0.614828514
1710.76332	0.614932886
1708.83462	0.61488185
1706.90591	0.61480489
1704.9772	0.614856952
1703.04849	0.614754098
1701.11979	0.614689644
1699.19108	0.61480615
1697.26237	0.614974154
1695.33367	0.61530782
1693.40496	0.615499502
1691.47625	0.615639496
1689.54754	0.615830436
1687.61884	0.615703164
1685.69013	0.615652462
1683.76142	0.615652462
1681.83272	0.615855677
1679.90401	0.616261775
1677.9753	0.616058153
1676.04659	0.615994712
1674.11789	0.615956392
1672.18918	0.615981509
1670.26047	0.616248349
1668.33176	0.616399934
1666.40306	0.616576042
1664.47435	0.616803954
1662.54564	0.616702355
1660.61694	0.616954733
1658.68823	0.617080796
1656.75952	0.616905586
1654.83081	0.616655651
1652.90211	0.616606021
1650.9734	0.616870254
1649.04469	0.616982688
1647.11598	0.616982688
1645.18728	0.617196508
1643.25857	0.617332676
1641.32986	0.617584224
1639.40116	0.617497122
1637.47245	0.617322575
1635.54374	0.617525943
1633.61503	0.617763158
1631.68633	0.617999672
1629.75762	0.617960926
1627.82891	0.618062397
1625.90021	0.61826544
1623.9715	0.618367012
1622.04279	0.618492363
1620.11408	0.618617633
1618.18538	0.618820824
1616.25667	0.618945986
1614.32796	0.619117888
1612.39925	0.619266055
1610.47055	0.619328419
1608.54184	0.619328419
1606.61313	0.619616833
1604.68443	0.619741365
1602.75572	0.619865816
1600.82701	0.620052339
1598.8983	0.620176586
1596.9696	0.620362804
1595.04089	0.620385495
1593.11218	0.620368859
1591.18347	0.620515329
1589.25477	0.620661561
1587.32606	0.620706495
1585.39735	0.62085231
1583.46865	0.620734482
1581.53994	0.620980838
1579.61123	0.621042377
1577.68252	0.621081696
1575.75382	0.621165395
1573.82511	0.621231767
1571.8964	0.621214575
1569.96769	0.620912917
1568.03899	0.621119017
1566.11028	0.621447028
1564.18157	0.621468927
1562.25287	0.621525533
1560.32416	0.621275907
1558.39545	0.621052632
1556.46674	0.621425109
1554.53804	0.621756648
1552.60933	0.621821693
1550.68062	0.621904149
1548.75192	0.622025723
1546.82321	0.622165031
1544.8945	0.621900161
1542.96579	0.621935484
1541.03709	0.622075198
1539.10838	0.62236185
1537.17967	0.622589974
1535.25096	0.622493181
1533.32226	0.622574956
1531.39355	0.622677771
1529.46484	0.622759283
1527.53614	0.622798591
1525.60743	0.622877283
1523.67872	0.622935044
1521.75001	0.622792937
1519.82131	0.622814054
1517.8926	0.623076923
1515.96389	0.623218575
1514.03518	0.62349928
1512.10648	0.623599103
1510.17777	0.623557692
1508.24906	0.6234558
1506.32036	0.62369729
1504.39165	0.624120282
1502.46294	0.624301453
1500.53423	0.624241456
1498.60553	0.624200767
1496.67682	0.624360614
1494.74811	0.624600639
1492.81941	0.624760383
1490.8907	0.624460432
1488.96199	0.62450024
1487.03328	0.624900112
1485.10458	0.625199617
1483.17587	0.625319285
1481.24716	0.62535931
1479.31845	0.625379575
1477.38975	0.625320102
1475.46104	0.625240539
1473.53233	0.625441696
1471.60363	0.62568306
1469.67492	0.625944382
1467.74621	0.626186263
1465.8175	0.626086957
1463.8888	0.626127577
1461.96009	0.626168224
1460.03138	0.626049064
1458.10267	0.625970246
1456.17397	0.625869038
1454.24526	0.626331075
1452.31655	0.626550669
1450.38785	0.626670962
1448.45914	0.62689211
1446.53043	0.626971355
1444.60172	0.627009646
1442.67302	0.627189458
1440.74431	0.62729026
1438.8156	0.627132282
1436.8869	0.626832018
1434.95819	0.627072268
1433.02948	0.627372145
1431.10077	0.627432063
1429.17207	0.627693792
1427.24336	0.627854616
1425.31465	0.627996782
1423.38594	0.627959414
1421.45724	0.628004517
1419.52853	0.628049766
1417.59982	0.628091159
1415.67112	0.628271405
1413.74241	0.628696074
1411.8137	0.628719276
1409.88499	0.628904353
1407.95629	0.628927762
1406.02758	0.628891051
1404.09887	0.628974692
1402.17016	0.629220779
1400.24146	0.629304743
1398.31275	0.629286527
1396.38404	0.629286527
1394.45534	0.62936495
1392.52663	0.629461389
1390.59792	0.629641641
1388.66921	0.629683698
1386.74051	0.629888042
1384.8118	0.630068115
1382.88309	0.630410115
1380.95439	0.63058976
1379.02568	0.630811599
1377.09697	0.630487607
1375.16826	0.630529898
1373.23956	0.63058976
1371.31085	0.630871396
1369.38214	0.630990933
1367.45343	0.631050672
1365.52473	0.631050672
1363.59602	0.63115285
1361.66731	0.631170092
1359.73861	0.631366209
1357.8099	0.631502423
1355.88119	0.63168093
1353.95248	0.63169787
1352.02378	0.631714793
1350.09507	0.631791069
1348.16636	0.631867247
1346.23765	0.631943326
1344.30895	0.632121017
1342.38024	0.632019308
1340.45153	0.632180209
1338.52283	0.632036024
1336.59412	0.632331673
1334.66541	0.632525285
1332.7367	0.632499198
1330.808	0.632414235
1328.87929	0.6324307
1326.95058	0.632548454
1325.02188	0.632767457
1323.09317	0.632767457
1321.16446	0.632868813
1319.23575	0.632809997
1317.30705	0.632911392
1315.37834	0.633114281
1313.44963	0.633055466
1311.52092	0.6333173
1309.59222	0.633418858
1307.66351	0.633461662
1305.7348	0.633504493
1303.8061	0.633386838
1301.87739	0.633633151
1299.94868	0.633617226
1298.01997	0.633805082
1296.09127	0.633891213
1294.16256	0.633918505
1292.23385	0.634107028
1290.30514	0.634134538
1288.37644	0.634162092
1286.44773	0.634453782
1284.51902	0.634422517
1282.59032	0.634596696
1280.66161	0.634668396
1278.7329	0.63462163
1276.80419	0.634943875
1274.87549	0.635044825
1272.94678	0.635294118
1271.01807	0.635365454
1269.08937	0.635406384
1267.16066	0.635582011
1265.23195	0.635759389
1263.30324	0.635696414
1261.37454	0.635923141
1259.44583	0.635953931
1257.51712	0.636303081
1255.58841	0.63643913
1253.65971	0.636333499
1251.731	0.636469029
1249.80229	0.636303412
1247.87359	0.636559496
1245.94488	0.636589816
1244.01617	0.636499502
1242.08746	0.636575229
1240.15876	0.636590644
1238.23005	0.636712237
1236.30134	0.636834196
1234.37263	0.636895802
1232.44393	0.637018425
1230.51522	0.637141419
1228.58651	0.637096774
1226.65781	0.637220259
1224.7291	0.637282993
1222.80039	0.63734594
1220.87168	0.637516915
1218.94298	0.637580481
1217.01427	0.637752504
1215.08556	0.637755102
1213.15686	0.637866394
1211.22815	0.638148907
1209.29944	0.638199555
1207.37073	0.638421955
1205.44203	0.63864535
1203.51332	0.63869745
1201.58461	0.638812155
1199.6559	0.638864856
1197.7272	0.638917794
1195.79849	0.638970972
1193.86978	0.639198606
1191.94108	0.639490223
1190.01237	0.63943317
1188.08366	0.639487989
1186.15495	0.639479698
1184.22625	0.639809591
1182.29754	0.640014152
1180.36883	0.640056768
1178.44012	0.640241735
1176.51142	0.640377426
1174.58271	0.640385301
1172.654	0.640507687
1170.7253	0.640566207
1168.79659	0.640919705
1166.86788	0.640979474
1164.93917	0.640974729
1163.01047	0.641331886
1161.08176	0.641211681
1159.15305	0.641389344
1157.22435	0.641684902
1155.29564	0.641799232
1153.36693	0.642031909
1151.43822	0.642265955
1149.50952	0.642435424
1147.58081	0.64260596
1145.6521	0.642644874
1143.72339	0.642870457
1141.79469	0.64297737
1139.86598	0.643098275
1137.93727	0.643219861
1136.00857	0.643153527
1134.07986	0.64333018
1132.15115	0.643250427
1130.22244	0.643415285
1128.29374	0.643513203
1126.36503	0.643351268
1124.43632	0.64357391
1122.50761	0.643729405
1120.57891	0.643816943
1118.6502	0.644031311
1116.72149	0.644177813
1114.79279	0.644453233
1112.86408	0.644660966
1110.93537	0.6448
1109.00666	0.64527163
1107.07796	0.64534413
1105.14925	0.645417515
1103.22054	0.645564434
1101.29184	0.64565307
1099.36313	0.645829021
1097.43442	0.646019539
1095.50571	0.646298227
1093.57701	0.646382267
1091.6483	0.646466765
1089.71959	0.646761985
1087.79088	0.647046414
1085.86218	0.647258099
1083.93347	0.647396387
1082.00476	0.647460521
1080.07606	0.64781491
1078.14735	0.648096365
1076.21864	0.647960285
1074.28993	0.648192249
1072.36123	0.64857825
1070.43252	0.648825065
1068.50381	0.649291167
1066.5751	0.649322256
1064.6464	0.64957265
1062.71769	0.649747308
1060.78898	0.65
1058.86028	0.650408298
1056.93157	0.650607735
1055.00286	0.650818222
1053.07415	0.650884956
1051.14545	0.650951749
1049.21674	0.651384275
1047.28803	0.651451363
1045.35933	0.651884701
1043.43062	0.652096738
1041.50191	0.652231845
1039.5732	0.652811736
1037.6445	0.653315532
1035.71579	0.653974616
1033.78708	0.654557611
1031.85837	0.65499554
1029.92967	0.655287818
1028.00096	0.655657219
1026.07225	0.655810841
1024.14355	0.656117673
1022.21484	0.656277827
1020.28613	0.656659996
1018.35742	0.656673329
1016.42872	0.656762749
1014.50001	0.656927844
1012.5713	0.656726309
1010.64259	0.657186949
1008.71389	0.657281126
1006.78518	0.657444005
1004.85647	0.657606313
1002.92777	0.657687254
1000.99906	0.657693149
999.07035	0.657986871
997.14164	0.657842923
995.21294	0.658130882
993.28423	0.657981169
991.35552	0.658338812
989.42682	0.658911326
987.49811	0.659190853
985.5694	0.659396343
983.64069	0.659597968
981.71199	0.660093064
979.78328	0.660587189
977.85457	0.661157025
975.92586	0.661507402
973.99716	0.662162162
972.06845	0.662522604
970.13974	0.663415741
968.21104	0.663936291
966.28233	0.664764948
964.35362	0.664988558
962.42491	0.665442864
960.49621	0.665899678
958.5675	0.666282022
956.63879	0.66720704
954.71008	0.667596467
952.78138	0.667677946
950.85267	0.668229777
948.92396	0.668237512
946.99526	0.668720379
945.06655	0.668812589
943.13784	0.668747
941.20913	0.669165659
939.28043	0.669592782
937.35172	0.670356704
935.42301	0.670722622
933.49431	0.671095513
931.5656	0.671475576
929.63689	0.67185904
927.70818	0.672076249
925.77948	0.672207792
923.85077	0.672427337
921.92206	0.672828096
919.99335	0.672969374
918.06465	0.673025255
916.13594	0.673264642
914.20723	0.673329682
912.27853	0.673491976
910.34982	0.674034695
908.42111	0.674214549
906.4924	0.674591808
904.5637	0.674688315
902.63499	0.67537423
900.70628	0.675274562
898.77757	0.675367537
896.84887	0.675659291
894.92016	0.675957121
892.99145	0.676160991
891.06275	0.676056338
889.13404	0.676479899
887.20533	0.67659302
885.27662	0.676708779
883.34792	0.676933159
881.41921	0.677162744
879.4905	0.6769437
877.5618	0.676938706
875.63309	0.677154583
873.70438	0.677363699
871.77567	0.677217391
869.84697	0.677532422
867.91826	0.677852349
865.98955	0.678177287
864.06084	0.677662245
862.13214	0.677862044
860.20343	0.678428519
858.27472	0.678021978
856.34602	0.677728614
854.41731	0.677431329
852.4886	0.677503737
850.55989	0.677577126
848.63119	0.677394926
846.70248	0.677714286
844.77377	0.677518192
842.84506	0.677319985
840.91636	0.677244582
838.98765	0.677168417
837.05894	0.677356277
835.13024	0.676886792
833.20153	0.677202687
831.27282	0.676587302
829.34411	0.676365086
827.41541	0.676011213
825.4867	0.675925926
823.55799	0.675839741
821.62929	0.675477837
819.70058	0.675112383
817.77187	0.674599918
815.84316	0.673948887
813.91446	0.673291925
811.98575	0.672908864
810.05704	0.672803347
808.12833	0.672413793
806.19963	0.671736375
804.27092	0.671331637
802.34221	0.670778392
800.41351	0.670502984
798.4848	0.669795222
796.55609	0.669227486
794.62738	0.668515358
792.69868	0.668230277
790.76997	0.667660844
788.84126	0.666808511
786.91255	0.665816327
784.98385	0.665533362
783.05514	0.665250637
781.12643	0.664543524
779.19773	0.663131099
777.26902	0.662425785
775.34031	0.661440678
773.4116	0.66130398
771.4829	0.660608622
769.55419	0.659493671
767.62548	0.659081332
765.69678	0.658249158
763.76807	0.657695542
761.83936	0.656998739
759.91065	0.656578394
757.98195	0.655737705
756.05324	0.655027345
754.12453	0.655012637
752.19582	0.654576128
750.26712	0.653992395
748.33841	0.653406686
746.4097	0.652524395
744.481	0.652488303
742.55229	0.652303754
740.62358	0.65239726
738.69487	0.65193133
736.76617	0.651312957
734.83746	0.651403888
732.90875	0.651344319
730.98004	0.650848933
729.05134	0.65034965
727.12263	0.650131694
725.19392	0.6501985
723.26522	0.650554324
721.33651	0.650468123
719.4078	0.651121076
717.47909	0.65103697
715.55039	0.650951949
713.62168	0.650706794
711.69297	0.650757228
709.76427	0.650507849
707.83556	0.650557621
705.90685	0.650608045
703.97814	0.650188324
702.04944	0.650071124
700.12073	0.649952245
698.19202	0.65031265
696.26331	0.650678295
694.33461	0.651367188
692.4059	0.651574803
690.47719	0.650793651
688.54849	0.6505
686.61978	0.650529501
684.69107	0.651221996
682.76236	0.651413882
680.83366	0.65093361
678.90495	0.65096808
676.97624	0.650475185
675.04753	0.650319829
673.11883	0.651050081
671.19012	0.65125136
669.26141	0.651456844
667.33271	0.651304831
665.404	0.6517106
663.47529	0.651558074
661.54658	0.651402404
659.61788	0.651821862
657.68917	0.651081239
655.76046	0.651300236
653.83176	0.651913876
651.90305	0.65235792
649.97434	0.652811736
648.04563	0.652872143
646.11693	0.652526513
644.18822	0.651982379
642.25951	0.652477764
640.3308	0.652982681
638.4021	0.652427184
636.47339	0.652287582
634.54468	0.652575958
632.61598	0.653074866
630.68727	0.653585927
628.75856	0.654557916
626.82985	0.654861111
624.90115	0.655172414
622.97244	0.654778887
621.04373	0.654624277
619.11502	0.654718361
617.18632	0.654585799
615.25761	0.655455904
613.3289	0.655354449
611.4002	0.655015198
609.47149	0.65467075
607.54278	0.654320988
605.61407	0.654474708
603.68537	0.653846154
601.75666	0.65451664
