4999.20917	0.235294118
4997.28046	0.234192037
4995.35176	0.23364486
4993.42305	0.233100233
4991.49434	0.23255814
4989.56564	0.234338747
4987.63693	0.233796296
4985.70822	0.233796296
4983.77951	0.233256351
4981.85081	0.232718894
4979.9221	0.232183908
4977.99339	0.231651376
4976.06468	0.233409611
4974.13598	0.232876712
4972.20727	0.232346241
4970.27856	0.232346241
4968.34986	0.234090909
4966.42115	0.233560091
4964.49244	0.233031674
4962.56373	0.232505643
4960.63503	0.231981982
4958.70632	0.231460674
4956.77761	0.230941704
4954.8489	0.232662192
4952.9202	0.232142857
4950.99149	0.231625835
4949.06278	0.231111111
4947.13408	0.23059867
4945.20537	0.230088496
4943.27666	0.231788079
4941.34795	0.231277533
4939.41925	0.230769231
4937.49054	0.230263158
4935.56183	0.2297593
4933.63313	0.231441048
4931.70442	0.230936819
4929.77571	0.230434783
4927.847	0.232104121
4925.9183	0.231601732
4923.98959	0.231101512
4922.06088	0.230603448
4920.13217	0.230107527
4918.20347	0.229613734
4916.27476	0.231263383
4914.34605	0.230769231
4912.41735	0.230277186
4910.48864	0.229787234
4908.55993	0.231422505
4906.63122	0.230932203
4904.70252	0.230443975
4902.77381	0.229957806
4900.8451	0.229473684
4898.91639	0.228991597
4896.98769	0.22851153
4895.05898	0.228033473
4893.13027	0.227557411
4891.20157	0.229166667
4889.27286	0.228690229
4887.34415	0.228215768
4885.41544	0.229813665
4883.48674	0.228865979
4881.55803	0.228395062
4879.62932	0.228395062
4877.70062	0.227459016
4875.77191	0.229038855
4873.8432	0.228571429
4871.91449	0.228105906
4869.98579	0.227642276
4868.05708	0.229208925
4866.12837	0.228282828
4864.19966	0.226262626
4862.27096	0.225806452
4860.34225	0.227364185
4858.41354	0.226907631
4856.48484	0.226452906
4854.55613	0.228
4852.62742	0.22754491
4850.69871	0.226640159
4848.77001	0.226190476
4846.8413	0.227722772
4844.91259	0.227272727
4842.98388	0.227272727
4841.05518	0.226824458
4839.12647	0.225933202
4837.19776	0.22745098
4835.26906	0.227005871
4833.34035	0.2265625
4831.41164	0.226120858
4829.48293	0.227626459
4827.55423	0.227184466
4825.62552	0.226305609
4823.69681	0.225868726
4821.76811	0.225433526
4819.8394	0.226923077
4817.91069	0.226487524
4815.98198	0.22605364
4814.05328	0.22519084
4812.12457	0.224761905
4810.19586	0.224334601
4808.26715	0.225806452
4806.33845	0.225378788
4804.40974	0.224952741
4802.48103	0.224528302
4800.55233	0.224105461
4798.62362	0.225140713
4796.69491	0.224719101
4794.7662	0.224299065
4792.8375	0.223880597
4790.90879	0.223463687
4788.98008	0.222634508
4787.05137	0.224074074
4785.12267	0.223659889
4783.19396	0.223247232
4781.26525	0.224677716
4779.33655	0.223853211
4777.40784	0.223443223
4775.47913	0.223034735
4773.55042	0.222627737
4771.62172	0.222222222
4769.69301	0.223636364
4767.7643	0.22323049
4765.8356	0.222826087
4763.90689	0.223826715
4761.97818	0.223423423
4760.04947	0.223021583
4758.12077	0.224416517
4756.19206	0.224014337
4754.26335	0.223613596
4752.33464	0.222816399
4750.40594	0.222419929
4748.47723	0.221631206
4746.54852	0.22300885
4744.61982	0.222614841
4742.69111	0.222222222
4740.7624	0.221830986
4738.83369	0.221441125
4736.90499	0.222807018
4734.97628	0.222027972
4733.04757	0.221640489
4731.11886	0.220869565
4729.19016	0.220486111
4727.26145	0.220103986
4725.33274	0.221453287
4723.40404	0.221070812
4721.47533	0.220689655
4719.54662	0.219931271
4717.61791	0.221269297
4715.68921	0.220890411
4713.7605	0.220136519
4711.83179	0.219761499
4709.90308	0.219387755
4707.97438	0.220713073
4706.04567	0.220338983
4704.11696	0.219966159
4702.18826	0.219224283
4700.25955	0.218855219
4698.33084	0.218120805
4696.40213	0.219430486
4694.47343	0.219063545
4692.54472	0.218333333
4690.61601	0.219633943
4688.68731	0.219269103
4686.7586	0.218905473
4684.82989	0.218181818
4682.90118	0.219471947
4680.97248	0.219110379
4679.04377	0.218390805
4677.11506	0.218032787
4675.18635	0.217675941
4673.25765	0.217320261
4671.32894	0.216965742
4669.40023	0.216260163
4667.47153	0.217532468
4665.54282	0.216828479
4663.61411	0.2180937
4661.6854	0.217741935
4659.7567	0.217391304
4657.82799	0.217041801
4655.89928	0.216346154
4653.97057	0.2176
4652.04187	0.216905901
4650.11316	0.21656051
4648.18445	0.216216216
4646.25575	0.217115689
4644.32704	0.2164297
4642.39833	0.216088328
4640.46962	0.215748031
4638.54092	0.216981132
4636.61221	0.21630094
4634.6835	0.215962441
4632.7548	0.215625
4630.82609	0.216510903
4628.89738	0.216174184
4626.96867	0.215503876
4625.03997	0.215170279
4623.11126	0.214506173
4621.18255	0.214175655
4619.25384	0.215384615
4617.32514	0.215053763
4615.39643	0.2143951
4613.46772	0.213740458
4611.53902	0.214939024
4609.61031	0.214611872
4607.6816	0.214285714
4605.75289	0.215151515
4603.82419	0.214826021
4601.89548	0.214177979
4599.96677	0.213855422
4598.03806	0.215037594
4596.10936	0.214392804
4594.18065	0.214071856
4592.25194	0.213432836
4590.32324	0.213114754
4588.39453	0.214285714
4586.46582	0.213649852
4584.53711	0.213333333
4582.60841	0.212703102
4580.6797	0.213864307
4578.75099	0.213549337
4576.82229	0.212922173
4574.89358	0.212609971
4572.96487	0.211988304
4571.03616	0.211678832
4569.10746	0.212518195
4567.17875	0.212209302
4565.25004	0.211594203
4563.32133	0.211287988
4561.39263	0.212427746
4559.46392	0.211815562
4557.53521	0.211510791
4555.60651	0.212338594
4553.6778	0.212034384
4551.74909	0.211428571
4549.82038	0.211126961
4547.89168	0.212250712
4545.96297	0.211647727
4544.03426	0.211347518
4542.10555	0.210749646
4540.17685	0.210451977
4538.24814	0.211267606
4536.31943	0.210970464
4534.39073	0.210378682
4532.46202	0.210084034
4530.53331	0.20979021
4528.6046	0.209205021
4526.6759	0.208913649
4524.74719	0.209722222
4522.81848	0.209431345
4520.88978	0.208852006
4518.96107	0.208275862
4517.03236	0.209366391
4515.10365	0.208791209
4513.17495	0.209876543
4511.24624	0.209302326
4509.31753	0.209016393
4507.38882	0.208446866
4505.46012	0.208163265
4503.53141	0.207598372
4501.6027	0.207317073
4499.674	0.208108108
4497.74529	0.20782726
4495.81658	0.207267833
4493.88787	0.206989247
4491.95917	0.207774799
4490.03046	0.207496653
4488.10175	0.20694259
4486.17304	0.208
4484.24434	0.207446809
4482.31563	0.207171315
4480.38692	0.206622517
4478.45822	0.206076618
4476.52951	0.205804749
4474.6008	0.206578947
4472.67209	0.20630749
4470.74339	0.20576671
4468.81468	0.206535948
4466.88597	0.206266319
4464.95727	0.205729167
4463.02856	0.205461638
4461.09985	0.206225681
4459.17114	0.205958549
4457.24244	0.205426357
4455.31373	0.20516129
4453.38502	0.204633205
4451.45631	0.205655527
4449.52761	0.205128205
4447.5989	0.204603581
4445.67019	0.204342273
4443.74149	0.205095541
4441.81278	0.204834606
4439.88407	0.205583756
4437.95536	0.205323194
4436.02666	0.204804046
4434.09795	0.204287516
4432.16924	0.204030227
4430.24053	0.203517588
4428.31183	0.203007519
4426.38312	0.202753442
4424.45441	0.20349563
4422.52571	0.203241895
4420.597	0.2039801
4418.66829	0.203726708
4416.73958	0.203221809
4414.81088	0.203955501
4412.88217	0.203452528
4410.95346	0.20295203
4409.02476	0.202702703
4407.09605	0.202205882
4405.16734	0.201958384
4403.23863	0.202686203
4401.30993	0.202439024
4399.38122	0.203163017
4397.45251	0.202669903
4395.5238	0.202424242
4393.5951	0.201934704
4391.66639	0.202898551
4389.73768	0.202409639
4387.80898	0.201923077
4385.88027	0.201680672
4383.95156	0.201197605
4382.02285	0.200716846
4380.09415	0.200477327
4378.16544	0.2
4376.23673	0.200951249
4374.30802	0.201660735
4372.37932	0.201183432
4370.45061	0.200708383
4368.5219	0.200235571
4366.5932	0.2
4364.66449	0.200704225
4362.73578	0.200234192
4360.80707	0.199766355
4358.87837	0.199300699
4356.94966	0.198837209
4355.02095	0.198606272
4353.09225	0.199304751
4351.16354	0.198843931
4349.23483	0.199769053
4347.30612	0.199308756
4345.37742	0.199079402
4343.44871	0.198622273
4341.52	0.198167239
4339.59129	0.198857143
4337.66259	0.198403649
4335.73388	0.198177677
4333.80517	0.197727273
4331.87647	0.197278912
4329.94776	0.197963801
4328.01905	0.197740113
4326.09034	0.19729425
4324.16164	0.196850394
4322.23293	0.197530864
4320.30422	0.197309417
4318.37551	0.196868009
4316.44681	0.196428571
4314.5181	0.195991091
4312.58939	0.196666667
4310.66069	0.196230599
4308.73198	0.197120709
4306.80327	0.196685083
4304.87456	0.196251378
4302.94586	0.195819582
4301.01715	0.196703297
4299.08844	0.19627193
4297.15974	0.195842451
4295.23103	0.195414847
4293.30232	0.196078431
4291.37361	0.195652174
4289.44491	0.195439739
4287.5162	0.195016251
4285.58749	0.195675676
4283.65878	0.195253506
4281.73008	0.195043103
4279.80137	0.195698925
4277.87266	0.19527897
4275.94396	0.194860814
4274.01525	0.194444444
4272.08654	0.194029851
4270.15783	0.193617021
4268.22913	0.193411265
4266.30042	0.194061506
4264.37171	0.193650794
4262.443	0.193241816
4260.5143	0.193888303
4258.58559	0.193480547
4256.65688	0.193074502
4254.72818	0.193717277
4252.79947	0.193312435
4250.87076	0.193110647
4248.94205	0.19375
4247.01335	0.193548387
4245.08464	0.193146417
4243.15593	0.192746114
4241.22723	0.193381593
4239.29852	0.192783505
4237.36981	0.192386831
4235.4411	0.192189106
4233.5124	0.191794872
4231.58369	0.192425793
4229.65498	0.192032686
4227.72627	0.191641182
4225.79757	0.191251272
4223.86886	0.191878173
4221.94015	0.191489362
4220.01145	0.191295547
4218.08274	0.190909091
4216.15403	0.190524194
4214.22532	0.190140845
4212.29662	0.189759036
4210.36791	0.190380762
4208.4392	0.191191191
4206.51049	0.190618762
4204.58179	0.190239044
4202.65308	0.189860835
4200.72437	0.189484127
4198.79567	0.189108911
4196.86696	0.188735178
4194.93825	0.189349112
4193.00954	0.188976378
4191.08084	0.189773845
4189.15213	0.189401374
4187.22342	0.190009794
4185.29472	0.188660802
4183.36601	0.188292683
4181.4373	0.189083821
4179.50859	0.188532556
4177.57989	0.188166828
4175.65118	0.188770571
4173.72247	0.188405797
4171.79376	0.18804243
4169.86506	0.187680462
4167.93635	0.1882805
4166.00764	0.187739464
4164.07894	0.187380497
4162.15023	0.187201528
4160.22152	0.186844614
4158.29281	0.186489058
4156.36411	0.18708452
4154.4354	0.186729858
4152.50669	0.187322611
4150.57798	0.186968839
4148.64928	0.1866164
4146.72057	0.186265287
4144.79186	0.185741088
4142.86316	0.186329588
4140.93445	0.185981308
4139.00574	0.185634328
4137.07703	0.186219739
4135.14833	0.185873606
4133.21962	0.185528757
4131.29091	0.185185185
4129.36221	0.185013876
4127.4335	0.184672207
4125.50479	0.185253456
4123.57608	0.184742647
4121.64738	0.18440367
4119.71867	0.184065934
4117.78996	0.18464351
4115.86125	0.184306569
4113.93255	0.183970856
4112.00384	0.183636364
4110.07513	0.184210526
4108.14643	0.183710407
4106.21772	0.1833785
4104.28901	0.183949504
4102.3603	0.183618362
4100.4316	0.18328841
4098.50289	0.182959641
4096.57418	0.18263205
4094.64547	0.18230563
4092.71677	0.182872435
4090.78806	0.18254675
4088.85935	0.182222222
4086.93065	0.182624113
4085.00194	0.182300885
4083.07323	0.181978799
4081.14452	0.182539683
4079.21582	0.18221831
4077.28711	0.181898067
4075.3584	0.181578947
4073.4297	0.181260946
4071.50099	0.181818182
4069.57228	0.181500873
4067.64357	0.18102698
4065.71487	0.181581234
4063.78616	0.181266262
4061.85745	0.181818182
4059.92874	0.18134715
4058.00004	0.181034483
4056.07133	0.180722892
4054.14262	0.180257511
4052.21392	0.180102916
4050.28521	0.179794521
4048.3565	0.18034188
4046.42779	0.18003413
4044.49909	0.179574468
4042.57038	0.180118946
4040.64167	0.179813401
4038.71296	0.180355631
4036.78426	0.179898649
4034.85555	0.179595278
4032.92684	0.179292929
4030.99814	0.178991597
4029.06943	0.178541492
4027.14072	0.178242678
4025.21201	0.177944862
4023.28331	0.178482068
4021.3546	0.178036606
4019.42589	0.178571429
4017.49719	0.17827529
4015.56848	0.177980132
4013.63977	0.17768595
4011.71106	0.178070899
4009.78236	0.177777778
4007.85365	0.17748562
4005.92494	0.17704918
4003.99623	0.177577741
4002.06753	0.177287582
4000.13882	0.176854116
3998.21011	0.177379984
3996.28141	0.177091795
3994.3527	0.176804542
3992.42399	0.176518219
3990.49528	0.176232821
3988.56658	0.175948345
3986.63787	0.175523349
3984.70916	0.176045016
3982.78045	0.175621492
3980.85175	0.175340272
3978.92304	0.175859313
3976.99433	0.175578611
3975.06563	0.175298805
3973.13692	0.175675676
3971.20821	0.175396825
3969.2795	0.174980206
3967.3508	0.174703557
3965.42209	0.174427782
3963.49338	0.174940898
3961.56468	0.174528302
3959.63597	0.174254317
3957.70726	0.17476489
3955.77855	0.174354965
3953.84985	0.174082748
3951.92114	0.17381138
3949.99243	0.173540856
3948.06372	0.173271173
3946.13502	0.172868217
3944.20631	0.173374613
3942.2776	0.172972973
3940.3489	0.173343606
3938.42019	0.172943889
3936.49148	0.172678434
3934.56277	0.172546012
3932.63407	0.172281776
3930.70536	0.172650879
3928.77665	0.17238749
3926.84794	0.171993912
3924.91924	0.171732523
3922.99053	0.172230653
3921.06182	0.171969697
3919.13312	0.171709531
3917.20441	0.171450151
3915.2757	0.171686747
3913.34699	0.171171171
3911.41829	0.170786517
3909.48958	0.17053104
3907.56087	0.17053104
3905.63217	0.170658683
3903.70346	0.17053104
3901.77475	0.170276326
3899.84604	0.170513775
3897.91734	0.170623145
3895.98863	0.170118343
3894.05992	0.169867061
3892.13121	0.169616519
3890.20251	0.170103093
3888.2738	0.169852941
3886.34509	0.168993387
3884.41639	0.168621701
3882.48768	0.168983175
3880.55897	0.168613139
3878.63026	0.168850073
3876.70156	0.168482208
3874.77285	0.168359942
3872.84414	0.168359942
3870.91543	0.168237854
3868.98673	0.168596237
3867.05802	0.168109668
3865.12931	0.16774658
3863.20061	0.168103448
3861.2719	0.168338109
3859.34319	0.167977127
3857.41448	0.167381974
3855.48578	0.167144907
3853.55707	0.16702509
3851.62836	0.16678546
3849.69966	0.167257264
3847.77095	0.167372881
3845.84224	0.167254764
3843.91353	0.167136812
3841.98483	0.166314306
3840.05612	0.166901408
3838.12741	0.166666667
3836.1987	0.166900421
3834.27	0.166433566
3832.34129	0.166085136
3830.41258	0.165622825
3828.48388	0.165277778
3826.55517	0.164934165
3824.62646	0.165627166
3822.69775	0.164934165
3820.76905	0.164705882
3818.84034	0.164941339
3816.91163	0.164600551
3814.98292	0.164722032
3813.05422	0.164842681
3811.12551	0.165187713
3809.1968	0.164505119
3807.2681	0.164280845
3805.33939	0.164057182
3803.41068	0.163945578
3801.48197	0.164402174
3799.55327	0.16395664
3797.62456	0.164189189
3795.69585	0.163746631
3793.76715	0.163978495
3791.83844	0.163538874
3789.90973	0.163210702
3787.98102	0.163660655
3786.05232	0.163442295
3784.12361	0.163115846
3782.1949	0.162898936
3780.26619	0.162790698
3778.33749	0.162359178
3776.40878	0.162590879
3774.48007	0.16292876
3772.55137	0.162821358
3770.62266	0.162055336
3768.69395	0.1617357
3766.76524	0.161417323
3764.83654	0.161755075
3762.90783	0.161437908
3760.97912	0.161227154
3759.05041	0.161016949
3757.12171	0.161353286
3755.193	0.161248375
3753.26429	0.160807292
3751.33559	0.16015625
3749.40688	0.160493827
3747.47817	0.160181582
3745.54946	0.160181582
3743.62076	0.159663866
3741.69205	0.160128617
3739.76334	0.159717768
3737.83464	0.159820282
3735.90593	0.159717768
3733.97722	0.159309021
3732.04851	0.159974506
3730.11981	0.16
3728.1911	0.159695817
3726.26239	0.159493671
3724.33368	0.159191409
3722.40498	0.15889029
3720.47627	0.159119497
3718.54756	0.158720201
3716.61886	0.158521303
3714.69015	0.158521303
3712.76144	0.157894737
3710.83273	0.15822389
3708.90403	0.157632399
3706.97532	0.157763975
3705.04661	0.157568238
3703.1179	0.157372986
3701.1892	0.15779703
3699.26049	0.157927205
3697.33178	0.157635468
3695.40308	0.157441574
3693.47437	0.157441574
3691.54566	0.156826568
3689.61695	0.156730178
3687.68825	0.156862745
3685.75954	0.156898657
3683.83083	0.156421181
3681.90213	0.156231003
3679.97342	0.156231003
3678.04471	0.155717762
3676.116	0.155812538
3674.1873	0.156136087
3672.25859	0.155757576
3670.32988	0.155474894
3668.40117	0.155609168
3666.47247	0.155555556
3664.54376	0.155182744
3662.61505	0.154997008
3660.68635	0.154811715
3658.75764	0.154811715
3656.82893	0.154121864
3654.90022	0.154442457
3652.97152	0.154442457
3651.04281	0.154029851
3649.1141	0.153937947
3647.18539	0.153983353
3645.25669	0.154028436
3643.32798	0.153573538
3641.39927	0.153301887
3639.47057	0.153121319
3637.54186	0.153529412
3635.61315	0.153349001
3633.68444	0.153349001
3631.75574	0.152851264
3629.82703	0.152442613
3627.89832	0.15258216
3625.96961	0.152631579
3624.04091	0.152275379
3622.1122	0.152275379
3620.18349	0.152275379
3618.25479	0.152097902
3616.32608	0.151832461
3614.39737	0.151656014
3612.46866	0.151567944
3610.53996	0.151479977
3608.61125	0.151216686
3606.68254	0.151445087
3604.75384	0.151095732
3602.82513	0.150921659
3600.89642	0.150747986
3598.96771	0.150574713
3597.03901	0.150401837
3595.1103	0.150802752
3593.18159	0.150630011
3591.25288	0.150457666
3589.32418	0.149885584
3587.39547	0.149714286
3585.46676	0.149372862
3583.53806	0.14960182
3581.60935	0.149431818
3579.68064	0.149262202
3577.75193	0.149092971
3575.82323	0.149405772
3573.89452	0.149236857
3571.96581	0.149152542
3570.0371	0.149152542
3568.1084	0.149152542
3566.17969	0.148900169
3564.25098	0.148564997
3562.32228	0.148314607
3560.39357	0.148065059
3558.46486	0.14789916
3556.53615	0.148293229
3554.60745	0.148210291
3552.67874	0.148044693
3550.75003	0.147879464
3548.82133	0.147714604
3546.89262	0.147075209
3544.96391	0.146829811
3543.0352	0.147140478
3541.1065	0.14697726
3539.17779	0.146814404
3537.24908	0.146651909
3535.32037	0.14640884
3533.39167	0.146799117
3531.46296	0.146718147
3529.53425	0.146637266
3527.60555	0.146556474
3525.67684	0.146395157
3523.74813	0.146234195
3521.81942	0.145993414
3519.89072	0.145833333
3517.96201	0.145673604
3516.0333	0.145514223
3514.10459	0.145275806
3512.17589	0.145117294
3510.24718	0.145504087
3508.31847	0.145345672
3506.38977	0.145187602
3504.46106	0.145108696
3502.53235	0.144872491
3500.60364	0.144715447
3498.67494	0.144480519
3496.74623	0.144864865
3494.81752	0.144168467
3492.88882	0.144012945
3490.96011	0.143857759
3489.0314	0.143702906
3487.10269	0.143548387
3485.17399	0.14331723
3483.24528	0.143163539
3481.31657	0.143010177
3479.38786	0.143315508
3477.45916	0.143162393
3475.53045	0.143009605
3473.60174	0.142781034
3471.67304	0.142629058
3469.74433	0.1424017
3467.81562	0.142250531
3465.88691	0.142024377
3463.95821	0.142403388
3462.0295	0.14217759
3460.10079	0.141952507
3458.17208	0.142329995
3456.24338	0.142105263
3454.31467	0.14188124
3452.38596	0.141732283
3450.45726	0.141583639
3448.52855	0.141435306
3446.59984	0.141213389
3444.67113	0.141065831
3442.74243	0.14084507
3440.81372	0.141145833
3438.88501	0.140925637
3436.95631	0.140706127
3435.0276	0.141005702
3433.09889	0.140786749
3431.17018	0.140568475
3429.24148	0.140350877
3427.31277	0.140133952
3425.38406	0.139917695
3423.45535	0.139702106
3421.52665	0.139487179
3419.59794	0.139784946
3417.66923	0.139499234
3415.74053	0.139285714
3413.81182	0.139072848
3411.88311	0.139440204
3409.9544	0.139227642
3408.0257	0.139086294
3406.09699	0.13887481
3404.16828	0.138663968
3402.23957	0.13895907
3400.31087	0.138748739
3398.38216	0.138539043
3396.45345	0.138763198
3394.52475	0.138554217
3392.59604	0.138276553
3390.66733	0.138
3388.73862	0.137724551
3386.80992	0.137518685
3384.88121	0.137313433
3382.9525	0.137605564
3381.0238	0.137332672
3379.09509	0.137623762
3377.16638	0.137419674
3375.23767	0.13721619
3373.30897	0.136945813
3371.38026	0.136743728
3369.45155	0.137033399
3367.52284	0.13683178
3365.59414	0.136630754
3363.66543	0.136430318
3361.73672	0.136163982
3359.80802	0.136452242
3357.87931	0.136253041
3355.9506	0.136054422
3354.02189	0.135790495
3352.09319	0.13559322
3350.16448	0.135396518
3348.23577	0.135683245
3346.30706	0.135486982
3344.37836	0.135226179
3342.44965	0.135031235
3340.52094	0.135316699
3338.59224	0.135122185
3336.66353	0.13492823
3334.73482	0.134670487
3332.80611	0.134477825
3330.87741	0.134285714
3328.9487	0.134505703
3327.01999	0.134314191
3325.09129	0.134123223
3323.16258	0.133932797
3321.23387	0.133679735
3319.30516	0.133962264
3317.37646	0.133772963
3315.44775	0.133584196
3313.51904	0.133333333
3311.59033	0.133552015
3309.66163	0.133302152
3307.73292	0.133115367
3305.80421	0.132929104
3303.87551	0.132681564
3301.9468	0.132899628
3300.01809	0.132653061
3298.08938	0.132468736
3296.16068	0.132223763
3294.23197	0.132502308
3292.30326	0.132258065
3290.37455	0.132075472
3288.44585	0.132292145
3286.51714	0.132110092
3284.58843	0.131868132
3282.65973	0.13214449
3280.73102	0.131903241
3278.80231	0.13166287
3276.8736	0.131423374
3274.9449	0.131638675
3273.01619	0.131459655
3271.08748	0.131221719
3269.15878	0.130984643
3267.23007	0.130807397
3265.30136	0.130571814
3263.37265	0.130395683
3261.44395	0.130610413
3259.51524	0.130376344
3257.58653	0.130201342
3255.65782	0.130415364
3253.72912	0.130240856
3251.80041	0.130008905
3249.8717	0.129777778
3247.943	0.129604971
3246.01429	0.129875887
3244.08558	0.129646018
3242.15687	0.129416961
3240.22817	0.129245699
3238.29946	0.129458388
3236.37075	0.129230769
3234.44204	0.129003949
3232.51334	0.128777924
3230.58463	0.128989943
3228.65592	0.128820961
3226.72722	0.128596338
3224.79851	0.128807659
3222.8698	0.128639722
3220.94109	0.128416486
3219.01239	0.128194023
3217.08368	0.12797233
3215.15497	0.128182995
3213.22627	0.128017241
3211.29756	0.127796902
3209.36885	0.128006873
3207.44014	0.127732533
3205.51144	0.127568493
3203.58273	0.126923077
3201.65402	0.127133106
3199.72531	0.126970601
3197.79661	0.127179923
3195.8679	0.126963907
3193.93919	0.126748622
3192.01049	0.126534067
3190.08178	0.126320237
3188.15307	0.126582278
3186.22436	0.126368997
3184.29566	0.126156434
3182.36695	0.1263644
3180.43824	0.126152557
3178.50953	0.125941423
3176.58083	0.125730994
3174.65212	0.125521268
3172.72341	0.12531224
3170.79471	0.125103907
3168.866	0.125363221
3166.93729	0.125155408
3165.00858	0.125362019
3163.07988	0.125154895
3161.15117	0.124948454
3159.22246	0.124331
3157.29376	0.124126593
3155.36505	0.124333197
3153.43634	0.124129455
3151.50763	0.124335378
3149.57893	0.124132299
3147.65022	0.124388254
3145.72151	0.124185668
3143.7928	0.12398374
3141.8641	0.123782468
3139.93539	0.123936817
3138.00668	0.123786408
3136.07798	0.12358643
3134.14927	0.123387097
3132.22056	0.123188406
3130.29185	0.123342708
3128.36315	0.123144805
3126.43444	0.122996795
3124.50573	0.1228
3122.57702	0.122603834
3120.64832	0.122807018
3118.71961	0.122562674
3116.7909	0.122367898
3114.8622	0.122173741
3112.93349	0.121980198
3111.00478	0.121787268
3109.07607	0.121989735
3107.14737	0.12214342
3105.21866	0.12195122
3103.28995	0.121807466
3101.36125	0.12161632
3099.43254	0.12181747
3097.50383	0.121579359
3095.57512	0.121389539
3093.64642	0.121200312
3091.71771	0.121011673
3089.789	0.121212121
3087.86029	0.120977123
3085.93159	0.120789779
3084.00288	0.120649652
3082.07417	0.12046332
3080.14547	0.120663069
3078.21676	0.120430935
3076.28805	0.12024587
3074.35934	0.120398773
3072.43064	0.120214395
3070.50193	0.120030581
3068.57322	0.119893089
3066.64451	0.119710255
3064.71581	0.119527979
3062.7871	0.119346256
3060.85839	0.119119879
3058.92969	0.118939394
3057.00098	0.11913767
3055.07227	0.118912797
3053.14356	0.118733509
3051.21486	0.118931125
3049.28615	0.118796992
3047.35744	0.118618619
3045.42874	0.118815592
3043.50003	0.118637725
3041.57132	0.118460389
3039.64261	0.118283582
3037.71391	0.118435754
3035.7852	0.118259576
3033.85649	0.118083921
3031.92778	0.117952522
3029.99908	0.117777778
3028.07037	0.11760355
3026.14166	0.117429838
3024.21296	0.117625369
3022.28425	0.117495396
3020.35554	0.117322545
3018.42683	0.117150202
3016.49813	0.117388114
3014.56942	0.117216117
3012.64071	0.117044623
3010.712	0.116916332
3008.7833	0.116788321
3006.85459	0.116618076
3004.92588	0.116490717
3002.99718	0.116363636
3001.06847	0.116236833
2999.13976	0.116473149
2997.21105	0.116026106
2995.28235	0.115942029
2993.35364	0.115858074
2991.42493	0.11577424
2989.49623	0.115732369
2987.56752	0.115690528
2985.63881	0.115328995
2983.7101	0.115328995
2981.7814	0.115328995
2979.85269	0.115050651
2977.92398	0.115133961
2975.99527	0.114938361
2974.06657	0.115147112
2972.13786	0.115034583
2970.20915	0.114963504
2968.28045	0.11489206
2966.35174	0.11473607
2964.42303	0.114453412
2962.49432	0.114369501
2960.56562	0.114118508
2958.63691	0.114150255
2956.7082	0.114098837
2954.77949	0.114006515
2952.85079	0.113956004
2950.92208	0.113946801
2948.99337	0.11366081
2947.06467	0.113457409
2945.13596	0.113335717
2943.20725	0.113254734
2941.27854	0.113254734
2939.34984	0.113254734
2937.42113	0.113295211
2935.49242	0.112937813
2933.56372	0.112897463
2931.63501	0.112857143
2929.7063	0.112736354
2927.77759	0.112575704
2925.84889	0.112375533
2923.92018	0.112451224
2921.99147	0.112133003
2920.06276	0.11212976
2918.13406	0.11208714
2916.20535	0.1117338
2914.27664	0.111731844
2912.34794	0.111729899
2910.41923	0.111766748
2908.49052	0.111534465
2906.56181	0.111610228
2904.63311	0.11137931
2902.7044	0.111111111
2900.77569	0.111187371
2898.84698	0.111263266
2896.91828	0.11103519
2894.98957	0.110808046
2893.06086	0.110581831
2891.13216	0.110394022
2889.20345	0.11020685
2887.27474	0.110358835
2885.34603	0.110246872
2883.41733	0.110472973
2881.48862	0.110023625
2879.55991	0.10994941
2877.63121	0.10991234
2875.7025	0.109838275
2873.77379	0.109390778
2871.84508	0.109543011
2869.91638	0.109359275
2867.98767	0.109511052
2866.05896	0.109327984
2864.13025	0.10918197
2862.20155	0.109406271
2860.27284	0.109260493
2858.34413	0.109151414
2856.41543	0.1089701
2854.48672	0.108789386
2852.55801	0.10857332
2850.6293	0.108616705
2848.7006	0.108294931
2846.77189	0.108631441
2844.84318	0.108638743
2842.91447	0.108681462
2840.98577	0.108433735
2839.05706	0.108187135
2837.12835	0.107941653
2835.19965	0.107732126
2833.27094	0.10755814
2831.34223	0.107384715
2829.41352	0.107533806
2827.48482	0.107682417
2825.55611	0.107509628
2823.6274	0.107337392
2821.6987	0.1072
2819.76999	0.107062959
2817.84128	0.107211232
2815.91257	0.107040459
2813.98387	0.106904232
2812.05516	0.106734435
2810.12645	0.106598985
2808.19774	0.106463878
2806.26904	0.106329114
2804.34033	0.10619469
2802.41162	0.106060606
2800.48292	0.106242119
2798.55421	0.106074913
2796.6255	0.105941528
2794.69679	0.105775267
2792.76809	0.105642633
2790.83938	0.105510332
2788.91067	0.105378361
2786.98196	0.105213862
2785.05326	0.10539445
2783.12455	0.105263158
2781.19584	0.105132193
2779.26714	0.105279503
2777.33843	0.105181508
2775.40972	0.105018587
2773.48101	0.104888614
2771.55231	0.104758962
2769.6236	0.10462963
2767.69489	0.104500617
2765.76619	0.104371921
2763.83748	0.104243542
2761.90877	0.104422604
2759.98006	0.104294479
2758.05136	0.104166667
2756.12265	0.104039168
2754.19394	0.10391198
2752.26523	0.103785104
2750.33653	0.103658537
2748.40782	0.103532278
2746.47911	0.103406326
2744.55041	0.10328068
2742.6217	0.10315534
2740.69299	0.103333333
2738.76428	0.103208232
2736.83558	0.103083434
2734.90687	0.102958937
2732.97816	0.102834741
2731.04945	0.102710843
2729.12075	0.102587244
2727.19204	0.102463942
2725.26333	0.102641056
2723.33463	0.102487264
2721.40592	0.102364562
2719.47721	0.102242152
2717.5485	0.102120036
2715.6198	0.101998211
2713.69109	0.101876676
2711.76238	0.10175543
2709.83368	0.101931649
2707.90497	0.101810626
2705.97626	0.10168989
2704.04755	0.10156944
2702.11885	0.101449275
2700.19014	0.101329394
2698.26143	0.101209796
2696.33272	0.10109048
2694.40402	0.100971445
2692.47531	0.10085269
2690.5466	0.100734214
2688.6179	0.100616016
2686.68919	0.100791093
2684.76048	0.100673105
2682.83177	0.100526008
2680.90307	0.10040864
2678.97436	0.100291545
2677.04565	0.100465929
2675.11694	0.100058173
2673.18824	0.099941894
2671.25953	0.099825885
2669.33082	0.099710145
2667.40212	0.099594673
2665.47341	0.099508244
2663.5447	0.09965338
2661.61599	0.099538373
2659.68729	0.099423631
2657.75858	0.099309154
2655.82987	0.09919494
2653.90117	0.099080988
2651.97246	0.098967298
2650.04375	0.098853868
2648.11504	0.098740698
2646.18634	0.0985996
2644.25763	0.098772481
2642.32892	0.098659823
2640.40021	0.098547422
2638.47151	0.098435277
2636.5428	0.098351336
2634.61409	0.098523566
2632.68539	0.098411798
2630.75668	0.098016997
2628.82797	0.097906055
2626.89926	0.097795365
2624.97056	0.097684924
2623.04185	0.097547223
2621.11314	0.097437342
2619.18443	0.097327707
2617.25573	0.09721832
2615.32702	0.097109178
2613.39831	0.09700028
2611.46961	0.097144457
2609.5409	0.097062937
2607.61219	0.096954457
2605.68348	0.096819196
2603.75478	0.09671126
2601.82607	0.096603563
2599.89736	0.096496107
2597.96865	0.096415671
2596.03995	0.096308632
2594.11124	0.096479068
2592.18253	0.096345515
2590.25383	0.096238938
2588.32512	0.096132597
2586.39641	0.095750552
2584.4677	0.095920617
2582.539	0.095788604
2580.61029	0.095683255
2578.68158	0.095852788
2576.75288	0.095747599
2574.82417	0.095642642
2572.89546	0.095537914
2570.96675	0.095407326
2569.03805	0.095303113
2567.10934	0.095199127
2565.18063	0.095095368
2563.25192	0.094991835
2561.32322	0.094888526
2559.39451	0.095057034
2557.4658	0.094682583
2555.5371	0.094554321
2553.60839	0.094451962
2551.67968	0.094620168
2549.75097	0.094517958
2547.82227	0.094390507
2545.89356	0.094288793
2543.96485	0.094187298
2542.03614	0.094086022
2540.10744	0.094253491
2538.17873	0.09388412
2536.25002	0.093783494
2534.32132	0.093658014
2532.39261	0.093557872
2530.4639	0.093432995
2528.53519	0.0936
2526.60649	0.093500266
2524.67778	0.093400745
2522.74907	0.093301435
2520.82037	0.093202337
2518.89166	0.093103448
2516.96295	0.092980132
2515.03424	0.092881715
2513.10554	0.092783505
2511.17683	0.092685503
2509.24812	0.092587708
2507.31941	0.092490119
2505.39071	0.092392735
2503.462	0.092271293
2501.53329	0.09217437
2499.60459	0.09207765
2497.67588	0.091957034
2495.74717	0.091860769
2493.81846	0.092026144
2491.88976	0.091930008
2489.96105	0.09181012
2488.03234	0.091714435
2486.10363	0.091618948
2484.17493	0.091523661
2482.24622	0.09140483
2480.31751	0.091309987
2478.38881	0.091215341
2476.4601	0.09112089
2474.53139	0.091003102
2472.60268	0.090909091
2470.67398	0.090791849
2468.74527	0.090698274
2466.81656	0.090862291
2464.88786	0.090768835
2462.95915	0.090675572
2461.03044	0.090559261
2459.10173	0.090466427
2457.17303	0.090350653
2455.24432	0.090258246
2453.31561	0.090166028
2451.3869	0.090073998
2449.4582	0.089959225
2447.52949	0.089867617
2445.60078	0.089776195
2443.67208	0.08991618
2441.74337	0.089824918
2439.81466	0.0897111
2437.88595	0.089620253
2435.95725	0.08952959
2434.02854	0.089186458
2432.09983	0.089073934
2430.17112	0.088984119
2428.24242	0.089123867
2426.31371	0.089034205
2424.385	0.088944724
2422.4563	0.088833124
2420.52759	0.088744046
2418.59888	0.088632949
2416.67017	0.088544272
2414.74147	0.088455772
2412.81276	0.088345396
2410.88405	0.088257292
2408.95535	0.088169365
2407.02664	0.088081612
2405.09793	0.088220676
2403.16922	0.088133069
2401.24052	0.088023804
2399.31181	0.087936587
2397.3831	0.087849542
2395.45439	0.087740979
2393.52569	0.087654321
2391.59698	0.087567834
2389.66827	0.087481518
2387.73957	0.087373862
2385.81086	0.087533809
2383.88215	0.087426326
2381.95344	0.08734053
2380.02474	0.087254902
2378.09603	0.087148103
2376.16732	0.086818293
2374.23861	0.086733447
2372.30991	0.086648767
2370.3812	0.086564253
2368.45249	0.086479903
2366.52379	0.086395717
2364.59508	0.086533787
2362.66637	0.086449733
2360.73766	0.086344894
2358.80896	0.08624031
2356.88025	0.086156825
2354.95154	0.086052695
2353.02284	0.085948817
2351.09413	0.085865895
2349.16542	0.085762467
2347.23671	0.085679904
2345.30801	0.085817308
2343.3793	0.085755465
2341.45059	0.085673146
2339.52188	0.085351235
2337.59318	0.085249042
2335.66447	0.085147094
2333.73576	0.085045389
2331.80706	0.085202864
2329.87835	0.085101311
2327.94964	0.085020243
2326.02093	0.084919125
2324.09223	0.084818247
2322.16352	0.084717608
2320.23481	0.084637269
2318.3061	0.084537059
2316.3774	0.084673605
2314.44869	0.084573588
2312.51998	0.084493746
2310.59128	0.084394154
2308.66257	0.084314649
2306.73386	0.084215479
2304.80515	0.08413631
2302.87645	0.084037559
2300.94774	0.083958724
2299.01903	0.083626142
2297.09033	0.083781886
2295.16162	0.083683964
2293.23291	0.083839327
2291.3042	0.083527765
2289.3755	0.083449883
2287.44679	0.083372147
2285.51808	0.083294556
2283.58937	0.083197769
2281.66067	0.083101207
2279.73196	0.083024119
2277.80325	0.083178869
2275.87455	0.08308262
2273.94584	0.08300578
2272.01713	0.082698083
2270.08842	0.082602677
2268.15972	0.082757031
2266.23101	0.082680792
2264.3023	0.082585691
2262.37359	0.082509768
2260.44489	0.08241506
2258.51618	0.08233945
2256.58747	0.082016037
2254.65877	0.081922197
2252.73006	0.081828571
2250.80135	0.081753825
2248.87264	0.081660584
2246.94394	0.081567555
2245.01523	0.081702321
2243.08652	0.081609457
2241.15782	0.081516803
2239.22911	0.081424359
2237.3004	0.081313703
2235.37169	0.081221719
2233.44299	0.081355932
2231.51428	0.081245768
2229.58557	0.081154193
2227.65686	0.081062824
2225.72816	0.08097166
2223.79945	0.080880701
2221.87074	0.080789946
2219.94204	0.080699395
2218.01333	0.080609046
2216.08462	0.0805189
2214.15591	0.08041099
2212.22721	0.080321285
2210.2985	0.080231781
2208.36979	0.080142476
2206.44108	0.080053369
2204.51238	0.080204399
2202.58367	0.080115402
2200.65496	0.080044346
2198.72626	0.079955703
2196.79755	0.079867257
2194.86884	0.07979664
2192.94013	0.079708545
2191.01143	0.079620644
2189.08272	0.079532937
2187.15401	0.07946291
2185.22531	0.079393006
2183.2966	0.0793058
2181.36789	0.079236172
2179.43918	0.079149309
2177.51048	0.079079956
2175.58177	0.078993435
2173.65306	0.079125683
2171.72435	0.079039301
2169.79565	0.078970332
2167.86694	0.078901482
2165.93823	0.078815589
2164.00953	0.078747009
2162.08082	0.078661452
2160.15211	0.07857608
2158.2234	0.078291043
2156.2947	0.078223185
2154.36599	0.078155445
2152.43728	0.078070934
2150.50857	0.078020316
2148.57987	0.077986606
2146.65116	0.078219533
2144.72245	0.077986606
2142.79375	0.077885653
2140.86504	0.077717976
2138.93633	0.077567684
2137.00762	0.077699077
2135.07892	0.07761578
2133.15021	0.077549272
2131.2215	0.077466296
2129.2928	0.077366959
2127.36409	0.077284372
2125.43538	0.077201962
2123.50667	0.07713616
2121.57797	0.077054066
2119.64926	0.077184776
2117.72055	0.077119184
2115.79184	0.076825127
2113.86314	0.076743693
2111.93443	0.076662431
2110.00572	0.076792892
2108.07702	0.076695542
2106.14831	0.076614605
2104.2196	0.076533839
2102.29089	0.076453243
2100.36219	0.076372817
2098.43348	0.07629256
2096.50477	0.076212471
2094.57606	0.07613255
2092.64736	0.076052797
2090.71865	0.075973211
2088.78994	0.075877926
2086.86124	0.075798705
2084.93253	0.075912409
2083.00382	0.075833333
2081.07511	0.07573866
2079.14641	0.075659946
2077.2177	0.075581395
2075.28899	0.07548735
2073.36029	0.075409157
2071.43158	0.075331126
2069.50287	0.075268817
2067.57416	0.075222153
2065.64546	0.075144509
2063.71675	0.075036075
2061.78804	0.0751338
2059.85933	0.075041118
2057.93063	0.074948665
2056.00192	0.074871795
2054.07321	0.074779758
2052.14451	0.074703234
2050.2158	0.074626866
2048.28709	0.074550654
2046.35838	0.074474597
2044.42968	0.074398695
2042.50097	0.074322948
2040.57226	0.074247356
2038.64355	0.074360016
2036.71485	0.074284554
2034.78614	0.074194202
2032.85743	0.074149109
2030.92873	0.073916565
2029.00002	0.073871686
2027.07131	0.073767179
2025.1426	0.073849879
2023.2139	0.07376058
2021.28519	0.07368633
2019.35648	0.073627037
2017.42778	0.073553055
2015.49907	0.073479221
2013.57036	0.073405535
2011.64165	0.073331998
2009.71295	0.073258607
2007.78424	0.073185363
2005.85553	0.073112265
2003.92682	0.073039314
2001.99812	0.072981057
2000.06941	0.072908367
1998.1407	0.072835821
1996.212	0.072777888
1994.28329	0.072720048
1992.35458	0.072478157
1990.42587	0.072406269
1988.49717	0.072518328
1986.56846	0.072446556
1984.63975	0.072389241
1982.71104	0.072332016
1980.78234	0.072260612
1978.85363	0.07220359
1976.92492	0.07213244
1974.99622	0.07207562
1973.06751	0.072004722
1971.1388	0.071948103
1969.21009	0.071695148
1967.28139	0.071638862
1965.35268	0.071764706
1963.42397	0.071736574
1961.49527	0.071610751
1959.56656	0.07151277
1957.63785	0.071610751
1955.70914	0.071372702
1953.78044	0.071414634
1951.85173	0.071331125
1949.92302	0.071261682
1947.99431	0.071192375
1946.06561	0.071123202
1944.1369	0.071081763
1942.20819	0.071026586
1940.27949	0.070930233
1938.35078	0.07083414
1936.42207	0.070765661
1934.49336	0.070890477
1932.56466	0.070822076
1930.63595	0.070561018
1928.70724	0.070506646
1926.77853	0.070452358
1924.84983	0.070411697
1922.92112	0.070357555
1920.99241	0.070317003
1919.06371	0.070276498
1917.135	0.070017265
1915.20629	0.069909979
1913.27758	0.070007651
1911.34888	0.069967501
1909.42017	0.06991404
1907.49146	0.069656489
1905.56276	0.06957682
1903.63405	0.069701009
1901.70534	0.069647954
1899.77663	0.06959498
1897.84793	0.069542086
1895.91922	0.069502469
1893.99051	0.069259962
1892.0618	0.069207433
1890.1331	0.069168088
1888.20439	0.069102613
1886.27568	0.069024206
1884.34698	0.06913487
1882.41827	0.069082673
1880.48956	0.069030555
1878.56085	0.068790049
1876.63215	0.06873823
1874.70344	0.068686489
1872.77473	0.068647734
1870.84602	0.068647734
1868.91732	0.068634825
1866.98861	0.068544601
1865.0599	0.068616423
1863.1312	0.068539326
1861.20249	0.06847521
1859.27378	0.068424004
1857.34507	0.068360105
1855.41637	0.068296324
1853.48766	0.068046234
1851.55895	0.067995529
1849.63025	0.067970205
1847.70154	0.067970205
1845.77283	0.06780924
1843.84412	0.067758749
1841.91542	0.06763285
1839.98671	0.067692878
1838.058	0.067617636
1836.12929	0.067567568
1834.20059	0.067530065
1832.27188	0.067530065
1830.34317	0.067530065
1828.41447	0.067467652
1826.48576	0.067405355
1824.55705	0.067330751
1822.62834	0.06724392
1820.69964	0.067169672
1818.77093	0.067120265
1816.84222	0.067083257
1814.91351	0.067046289
1812.98481	0.067033976
1811.0561	0.066838046
1809.12739	0.066788991
1807.19869	0.066727773
1805.26998	0.066703317
1803.34127	0.066532258
1801.41256	0.066544455
1799.48386	0.066348974
1797.55515	0.066312511
1795.62644	0.066324661
1793.69774	0.066373304
1791.76903	0.066385476
1789.84032	0.066312511
1787.91161	0.066080908
1785.98291	0.066093006
1784.0542	0.065921992
1782.12549	0.065921992
1780.19678	0.065909923
1778.26808	0.065909923
1776.33937	0.065750916
1774.41066	0.06583532
1772.48196	0.065712188
1770.55325	0.065700128
1768.62454	0.065627864
1766.69583	0.065567766
1764.76713	0.065543757
1762.83842	0.065396593
1760.90971	0.065249267
1758.981	0.065261228
1757.0523	0.065309118
1755.12359	0.065197429
1753.19488	0.065157372
1751.26618	0.064956634
1749.33747	0.064867862
1747.40876	0.064903846
1745.48005	0.064778827
1743.55135	0.064862861
1741.62264	0.064773571
1739.69393	0.064833736
1737.76523	0.06470807
1735.83652	0.064642325
1733.90781	0.064690529
1731.9791	0.064570153
1730.0504	0.064390425
1728.12169	0.064444444
1726.19298	0.064337216
1724.26427	0.064254062
1722.33557	0.064182958
1720.40686	0.063998525
1718.47815	0.06401033
1716.54945	0.063927782
1714.62074	0.063911846
1712.69203	0.063896009
1710.76332	0.063755937
1708.83462	0.063674512
1706.90591	0.063628077
1704.9772	0.063570128
1703.04849	0.06355855
1701.11979	0.063399526
1699.19108	0.063489176
1697.26237	0.063509345
1695.33367	0.063529412
1693.40496	0.063526439
1691.47625	0.063400576
1689.54754	0.063366337
1687.61884	0.063209076
1685.69013	0.063108547
1683.76142	0.063108547
1681.83272	0.06299496
1679.90401	0.062870487
1677.9753	0.062859195
1676.04659	0.06270212
1674.11789	0.062690857
1672.18918	0.062668343
1670.26047	0.0625
1668.33176	0.062432723
1666.40306	0.06233208
1664.47435	0.062320917
1662.54564	0.062320917
1660.61694	0.062455261
1658.68823	0.062432916
1656.75952	0.062354417
1654.83081	0.062207839
1652.90211	0.062275018
1650.9734	0.062151967
1649.04469	0.062073915
1647.11598	0.062085053
1645.18728	0.062007168
1643.25857	0.061896243
1641.32986	0.061851984
1639.40116	0.061706314
1637.47245	0.061626657
1635.54374	0.061648746
1633.61503	0.061728395
1631.68633	0.061618146
1629.75762	0.061428571
1627.82891	0.061450518
1625.90021	0.061293781
1623.9715	0.061304736
1622.04279	0.06128283
1620.11408	0.061260939
1618.18538	0.06128283
1616.25667	0.061271883
1614.32796	0.061195361
1612.39925	0.060951702
1610.47055	0.060951702
1608.54184	0.061129923
1606.61313	0.061108142
1604.68443	0.060908281
1602.75572	0.060708563
1600.82701	0.060686955
1598.8983	0.060654571
1596.9696	0.060633001
1595.04089	0.060600675
1593.11218	0.060380039
1591.18347	0.060315771
1589.25477	0.06042885
1587.32606	0.060375354
1585.39735	0.060321953
1583.46865	0.060268646
1581.53994	0.060226069
1579.61123	0.060215434
1577.68252	0.06006006
1575.75382	0.060017652
1573.82511	0.060098696
1571.8964	0.060045783
1569.96769	0.059869695
1568.03899	0.05979599
1566.11028	0.059887601
1564.18157	0.059856065
1562.25287	0.059743455
1560.32416	0.059725159
1558.39545	0.059569968
1556.46674	0.059412902
1554.53804	0.059411146
1552.60933	0.059317585
1550.68062	0.059265734
1548.75192	0.059255375
1546.82321	0.059276097
1544.8945	0.059369527
1542.96579	0.059298246
1541.03709	0.059329472
1539.10838	0.059225513
1537.17967	0.059224319
1535.25096	0.05915198
1533.32226	0.058946634
1531.39355	0.059059233
1529.46484	0.058844011
1527.53614	0.05887476
1525.60743	0.058741503
1523.67872	0.058813264
1521.75001	0.058710467
1519.82131	0.058679707
1517.8926	0.058443824
1515.96389	0.058567195
1514.03518	0.058362369
1512.10648	0.058382712
1510.17777	0.058279532
1508.24906	0.058186266
1506.32036	0.058145626
1504.39165	0.058147632
1502.46294	0.058200139
1500.53423	0.058046576
1498.60553	0.058107168
1496.67682	0.058117279
1494.74811	0.058240612
1492.81941	0.058240612
1490.8907	0.058137511
1488.96199	0.057983632
1487.03328	0.057923117
1485.10458	0.057852675
1483.17587	0.057832581
1481.24716	0.057842626
1479.31845	0.057719054
1477.38975	0.057635382
1475.46104	0.057591623
1473.53233	0.05752754
1471.60363	0.057557733
1469.67492	0.057547665
1467.74621	0.057412918
1465.8175	0.057308097
1463.8888	0.057328191
1461.96009	0.057162897
1460.03138	0.057097681
1458.10267	0.057062346
1456.17397	0.056876211
1454.24526	0.056911997
1452.31655	0.05697756
1450.38785	0.056957589
1448.45914	0.056772385
1446.53043	0.056732621
1444.60172	0.056682995
1442.67302	0.056643357
1440.74431	0.056663169
1438.8156	0.056567426
1436.8869	0.056636858
1434.95819	0.056597161
1433.02948	0.056537721
1431.10077	0.056537721
1429.17207	0.056537721
1427.24336	0.056537721
1425.31465	0.056392294
1423.38594	0.056451613
1421.45724	0.056199508
1419.52853	0.056122449
1417.59982	0.056132324
1415.67112	0.056092843
1413.74241	0.056102708
1411.8137	0.056142203
1409.88499	0.056015501
1407.95629	0.05606488
1406.02758	0.055937886
1404.09887	0.055977397
1402.17016	0.055840254
1400.24146	0.05571277
1398.31275	0.055742346
1396.38404	0.055742346
1394.45534	0.055702918
1392.52663	0.055634052
1390.59792	0.055428067
1388.66921	0.055634052
1386.74051	0.055643879
1384.8118	0.055437853
1382.88309	0.055408505
1380.95439	0.055388957
1379.02568	0.055555556
1377.09697	0.055388957
1375.16826	0.055232045
1373.23956	0.055222301
1371.31085	0.055026455
1369.38214	0.055007052
1367.45343	0.054997356
1365.52473	0.055007052
1363.59602	0.055016752
1361.66731	0.054987663
1359.73861	0.05493925
1357.8099	0.054881266
1355.88119	0.054852321
1353.95248	0.05483304
1352.02378	0.054804145
1350.09507	0.054765666
1348.16636	0.054736842
1346.23765	0.054708048
1344.30895	0.054679285
1342.38024	0.05449448
1340.45153	0.054319257
1338.52283	0.054300228
1336.59412	0.054252713
1334.66541	0.054195804
1332.7367	0.054323144
1330.808	0.054294693
1328.87929	0.054091782
1326.95058	0.053898482
1325.02188	0.053898482
1323.09317	0.054072911
1321.16446	0.054082345
1319.23575	0.054101222
1317.30705	0.054110665
1315.37834	0.05395495
1313.44963	0.053799127
1311.52092	0.053633823
1309.59222	0.053643194
1307.66351	0.053477805
1305.7348	0.053505858
1303.8061	0.053358992
1301.87739	0.053387012
1299.94868	0.053424418
1298.01997	0.053286591
1296.09127	0.053323978
1294.16256	0.053361418
1292.23385	0.053232607
1290.30514	0.053112909
1288.37644	0.053159655
1286.44773	0.053039648
1284.51902	0.053095784
1282.59032	0.052984811
1280.66161	0.052882915
1278.7329	0.052957846
1276.80419	0.052874379
1274.87549	0.052977778
1272.94678	0.052922309
1271.01807	0.052904379
1269.08937	0.052933788
1267.16066	0.052821345
1265.23195	0.052717391
1263.30324	0.05255501
1261.37454	0.052449463
1259.44583	0.052411283
1257.51712	0.052469136
1255.58841	0.052517204
1253.65971	0.05242227
1251.731	0.052384393
1249.80229	0.052384393
1247.87359	0.052241504
1245.94488	0.052298227
1244.01617	0.052183367
1242.08746	0.052249637
1240.15876	0.052124955
1238.23005	0.052018916
1236.30134	0.052094718
1234.37263	0.051997811
1232.44393	0.052073817
1230.51522	0.051976574
1228.58651	0.051695692
1226.65781	0.051597503
1224.7291	0.051682913
1222.80039	0.051584377
1220.87168	0.051495017
1218.94298	0.051405325
1217.01427	0.051305797
1215.08556	0.051410542
1213.15686	0.051506136
1211.22815	0.051434961
1209.29944	0.051353875
1207.37073	0.051282051
1205.44203	0.051209904
1203.51332	0.051137432
1201.58461	0.051064632
1199.6559	0.051180359
1197.7272	0.051107325
1195.79849	0.051033959
1193.86978	0.050960259
1191.94108	0.050886221
1190.01237	0.050611154
1188.08366	0.050545663
1186.15495	0.050489537
1184.22625	0.050635348
1182.29754	0.05060846
1180.36883	0.050561798
1178.44012	0.050465839
1176.51142	0.050359712
1174.58271	0.050253214
1172.654	0.050361117
1170.7253	0.050283702
1168.79659	0.050205923
1166.86788	0.050137633
1164.93917	0.049871871
1163.01047	0.049792531
1161.08176	0.049722662
1159.15305	0.049841144
1157.22435	0.049771053
1155.29564	0.049710521
1153.36693	0.049659592
1151.43822	0.049608355
1149.50952	0.049566794
1147.58081	0.049534978
1145.6521	0.049300061
1143.72339	0.049257073
1141.79469	0.049213804
1139.86598	0.049140049
1137.93727	0.049086055
1136.00857	0.048825711
1134.07986	0.048583833
1132.15115	0.048755187
1130.22244	0.048521449
1128.29374	0.048515266
1126.36503	0.048299034
1124.43632	0.048312236
1122.50761	0.048325562
1120.57891	0.048349308
1118.6502	0.048169557
1116.72149	0.048203142
1114.79279	0.047814799
1112.86408	0.047857298
1110.93537	0.047702407
1109.00666	0.047325556
1107.07796	0.047186531
1105.14925	0.047024738
1103.22054	0.047085202
1101.29184	0.047125141
1099.36313	0.047133469
1097.43442	0.047326507
1095.50571	0.047260274
1093.57701	0.047400962
1091.6483	0.047083142
1089.71959	0.046763419
1087.79088	0.046683615
1085.86218	0.046867749
1083.93347	0.046831314
1082.00476	0.046805523
1080.07606	0.046768508
1078.14735	0.046720151
1076.21864	0.046660351
1074.28993	0.046577947
1072.36123	0.046700024
1070.43252	0.046572725
1068.50381	0.046444817
1066.5751	0.046327412
1064.6464	0.046209386
1062.71769	0.046101859
1060.78898	0.045982575
1058.86028	0.046082949
1056.93157	0.045896066
1055.00286	0.04594069
1053.07415	0.045963035
1051.14545	0.045742092
1049.21674	0.045775505
1047.28803	0.045808967
1045.35933	0.045598634
1043.43062	0.045632016
1041.50191	0.045665446
1039.5732	0.045465656
1037.6445	0.045499022
1035.71579	0.045543585
1033.78708	0.045332026
1031.85837	0.045365375
1029.92967	0.045153374
1028.00096	0.044918999
1026.07225	0.044907975
1024.14355	0.044874939
1022.21484	0.044830965
1020.28613	0.044787078
1018.35742	0.044498778
1016.42872	0.044444444
1014.50001	0.04437942
1012.5713	0.04406037
1010.64259	0.043974733
1008.71389	0.043878788
1006.78518	0.043793854
1004.85647	0.043740938
1002.92777	0.043698696
1000.99906	0.043436293
999.07035	0.04318456
997.14164	0.04318456
995.21294	0.042953668
993.28423	0.043226274
991.35552	0.043268069
989.42682	0.043078412
987.49811	0.042909091
985.5694	0.042517007
983.64069	0.042387333
981.71199	0.042033236
979.78328	0.042187883
977.85457	0.042128603
975.92586	0.042068795
973.99716	0.042008451
972.06845	0.041677065
970.13974	0.041562344
968.21104	0.041436464
966.28233	0.041540785
964.35362	0.041393236
962.42491	0.041244939
960.49621	0.041106318
958.5675	0.041221374
956.63879	0.041102885
954.71008	0.040994107
952.78138	0.040905583
950.85267	0.041085271
948.92396	0.041028304
946.99526	0.040741708
945.06655	0.040483701
943.13784	0.04024358
941.20913	0.040288154
939.28043	0.040086091
937.35172	0.040173724
935.42301	0.04028501
933.49431	0.040121749
931.5656	0.039955295
929.63689	0.039751903
927.70818	0.039533561
925.77948	0.039288787
923.85077	0.039317722
921.92206	0.039055669
919.99335	0.03909465
918.06465	0.039145907
916.13594	0.038898863
914.20723	0.038670695
912.27853	0.038449802
910.34982	0.038247995
908.42111	0.038377535
906.4924	0.038534428
904.5637	0.03837544
902.63499	0.038187702
900.70628	0.038297872
898.77757	0.038359788
896.84887	0.038063439
894.92016	0.038098449
892.99145	0.037819421
891.06275	0.037878788
889.13404	0.037939436
887.20533	0.037662795
885.27662	0.037366548
883.34792	0.037063692
881.41921	0.03749545
879.4905	0.037541406
877.5618	0.037202381
875.63309	0.037190083
873.70438	0.037149356
871.77567	0.037065342
869.84697	0.03696573
867.91826	0.036850272
865.98955	0.036733099
864.06084	0.036614173
862.13214	0.036890123
860.20343	0.036755893
858.27472	0.037022133
856.34602	0.036871961
854.41731	0.036719706
852.4886	0.036565325
850.55989	0.036792063
848.63119	0.036590437
846.70248	0.036371237
844.77377	0.036585366
842.84506	0.036770921
840.91636	0.03653356
838.98765	0.036736437
837.05894	0.036925719
835.13024	0.037116962
833.20153	0.037294016
831.27282	0.037456446
829.34411	0.037166594
827.41541	0.037346221
825.4867	0.037086093
823.55799	0.037283622
821.62929	0.037466548
819.70058	0.03718638
817.77187	0.037336932
815.84316	0.037505648
813.91446	0.037675897
811.98575	0.037864964
810.05704	0.038055938
808.12833	0.037788018
806.19963	0.037962963
804.27092	0.038568773
802.34221	0.038694639
800.41351	0.039234003
798.4848	0.039270687
796.55609	0.039270687
794.62738	0.039252336
792.69868	0.03968254
790.76997	0.039645522
788.84126	0.03912436
786.91255	0.039571695
784.98385	0.04
783.05514	0.040446304
781.12643	0.040446304
779.19773	0.040427509
777.26902	0.040854225
775.34031	0.041299304
773.4116	0.041705283
771.4829	0.041628122
769.55419	0.042032333
767.62548	0.042435424
765.69678	0.042857143
763.76807	0.043278085
761.83936	0.04323827
759.91065	0.04323827
757.98195	0.04323827
756.05324	0.043718362
754.12453	0.043758637
752.19582	0.044300877
750.26712	0.044362292
748.33841	0.043981481
746.4097	0.044083527
744.481	0.044206608
742.55229	0.044330378
740.62358	0.044454843
738.69487	0.044580009
736.76617	0.04519774
734.83746	0.045347189
732.90875	0.045045045
730.98004	0.045216564
729.05134	0.04491161
727.12263	0.045105566
725.19392	0.045344911
723.26522	0.045079981
721.33651	0.045299562
719.4078	0.045543585
717.47909	0.045790251
715.55039	0.045544554
713.62168	0.045296167
711.69297	0.045568353
709.76427	0.045866935
707.83556	0.045154744
705.90685	0.04494382
703.97814	0.045244216
702.04944	0.045548654
700.12073	0.046354167
698.19202	0.046145779
696.26331	0.045958796
694.33461	0.045769026
692.4059	0.045576408
690.47719	0.045405405
688.54849	0.045231608
686.61978	0.045629467
684.69107	0.046085508
682.76236	0.045964126
680.83366	0.04581448
678.90495	0.0456621
676.97624	0.045506912
675.04753	0.045375218
673.11883	0.045240893
671.19012	0.045103858
669.26141	0.044964029
667.33271	0.04482132
665.404	0.045259939
663.47529	0.045117429
661.54658	0.045596502
659.61788	0.045425868
657.68917	0.045280612
655.76046	0.045132173
653.83176	0.045602606
651.90305	0.045424621
649.97434	0.045272969
648.04563	0.045117845
646.11693	0.044928523
644.18822	0.044642857
642.25951	0.045045045
640.3308	0.045454545
638.4021	0.04519774
636.47339	0.04496788
634.54468	0.044700793
632.61598	0.044493071
630.68727	0.044280443
628.75856	0.044128646
626.82985	0.043972707
624.90115	0.044546851
622.97244	0.044357977
621.04373	0.044129236
619.11502	0.043894653
617.18632	0.043654002
615.25761	0.043336059
613.3289	0.04290429
611.4002	0.04322527
609.47149	0.043551089
607.54278	0.043074324
605.61407	0.042589438
603.68537	0.042918455
601.75666	0.043327556
